##TITLE= Pfeffer-Wyman Instruments
##JCAMP_DX= 4.24
##DATA TYPE= INFRARED SPECTRUM
##YUNITS= % Transmittance
##XUNITS= 1/CM
##FIRSTX= 400.00000
##LASTX= 4000.000
##XFACTOR= 1.00000000
##DELTAX= 4.0000000
##NPOINTS= 901
##XYDATA= (X++(Y..Y))
400.00 91.566 91.893 92.111 91.952 91.605 91.435
424.00 91.516 91.564 92.211 92.671 93.066 93.471
448.00 93.813 94.026 94.204 94.471 94.773 95.027
472.00 95.302 95.657 95.990 96.220 96.411 96.613
496.00 96.772 96.865 96.957 97.080 97.185 97.251
520.00 97.330 97.461 97.616 97.743 97.822 97.858
544.00 97.876 97.913 97.979 98.037 98.045 98.006
568.00 97.931 97.814 97.667 97.532 97.449 97.427
592.00 97.450 97.494 97.544 97.606 97.682 97.768
616.00 97.851 97.919 97.954 97.949 97.903 97.838
640.00 97.795 97.785 97.799 97.872 97.990 98.021
664.00 97.908 97.795 97.830 97.915 97.889 97.743
688.00 97.553 97.332 96.999 96.455 95.632 94.368
712.00 92.428 90.206 88.783 89.153 91.023 92.932
736.00 94.204 95.006 95.612 96.056 96.339 96.507
760.00 96.579 96.591 96.595 96.593 96.568 96.563
784.00 96.641 96.801 96.977 97.107 97.199 97.324
808.00 97.531 97.787 98.015 98.154 98.199 98.172
832.00 98.070 97.855 97.490 96.969 96.329 95.687
856.00 95.252 95.213 95.590 96.189 96.776 97.230
880.00 97.524 97.670 97.718 97.747 97.790 97.815
904.00 97.774 97.638 97.410 97.145 96.928 96.801
928.00 96.744 96.725 96.752 96.855 97.052 97.317
952.00 97.597 97.839 98.022 98.158 98.264 98.327
976.00 98.318 98.229 98.056 97.795 97.435 96.965
1000.00 96.340 95.481 94.289 92.684 90.620 88.084
1024.00 85.136 82.093 79.714 78.880 79.829 81.867
1048.00 83.977 85.582 86.679 87.475 88.090 88.520
1072.00 88.700 88.589 88.166 87.189 85.332 82.849
1096.00 80.825 80.051 79.951 79.391 78.286 77.739
1120.00 78.708 80.951 83.233 84.269 83.467 81.065
1144.00 77.726 74.002 70.130 66.310 62.939 60.340
1168.00 58.368 56.711 55.587 55.677 57.227 59.687
1192.00 62.340 64.866 67.149 69.101 70.684 71.917
1216.00 72.787 73.263 73.365 73.195 72.882 72.490
1240.00 72.075 71.870 72.226 73.273 74.795 76.473
1264.00 78.081 79.484 80.624 81.510 82.178 82.608
1288.00 82.661 82.171 81.288 80.638 80.750 81.527
1312.00 82.500 83.434 84.459 85.610 86.501 86.674
1336.00 86.069 85.029 84.079 83.813 84.491 85.262
1360.00 84.379 81.098 77.048 74.962 76.187 79.627
1384.00 83.112 85.451 86.927 88.385 89.985 91.044
1408.00 90.959 89.785 88.021 86.656 86.259 86.000
1432.00 84.809 82.606 80.151 77.949 75.829 73.373
1456.00 70.276 67.304 66.458 69.476 76.224 83.564
1480.00 88.413 91.050 92.903 94.368 95.278 95.667
1504.00 95.698 95.746 96.072 96.304 96.320 96.585
1528.00 97.139 97.373 97.092 96.859 97.250 97.783
1552.00 97.832 97.565 97.630 98.104 98.441 98.535
1576.00 98.709 99.055 99.334 99.417 99.395 99.370
1600.00 99.345 99.287 99.176 98.967 98.672 98.488
1624.00 98.523 98.542 98.386 98.216 98.135 97.901
1648.00 97.439 97.209 97.491 97.752 97.571 97.108
1672.00 96.692 96.305 95.687 94.907 94.174 93.276
1696.00 91.957 90.708 90.044 89.344 87.708 84.510
1720.00 79.859 74.045 65.972 54.479 42.978 38.539
1744.00 44.054 56.411 69.565 79.139 84.930 88.377
1768.00 90.561 92.163 93.572 94.751 95.562 96.075
1792.00 96.474 96.924 97.447 97.923 98.285 98.604
1816.00 98.888 99.002 98.930 98.926 99.142 99.347
1840.00 99.339 99.285 99.414 99.656 99.786 99.719
1864.00 99.547 99.453 99.543 99.707 99.772 99.710
1888.00 99.637 99.653 99.740 99.824 99.861 99.860
1912.00 99.839 99.805 99.788 99.841 99.944 99.996
1936.00 99.938 99.838 99.803 99.856 99.919 99.928
1960.00 99.888 99.849 99.847 99.878 99.913 99.918
1984.00 99.876 99.815 99.788 99.807 99.831 99.815
2008.00 99.752 99.653 99.549 99.474 99.441 99.425
2032.00 99.408 99.393 99.399 99.425 99.458 99.488
2056.00 99.503 99.503 99.504 99.513 99.529 99.547
2080.00 99.566 99.587 99.614 99.646 99.678 99.702
2104.00 99.719 99.736 99.752 99.765 99.774 99.783
2128.00 99.793 99.792 99.768 99.729 99.691 99.660
2152.00 99.633 99.610 99.600 99.601 99.604 99.603
2176.00 99.602 99.600 99.589 99.572 99.559 99.551
2200.00 99.538 99.518 99.503 99.493 99.484 99.469
2224.00 99.448 99.426 99.404 99.387 99.371 99.352
2248.00 99.334 99.319 99.308 99.294 99.274 99.248
2272.00 99.214 99.165 99.100 99.015 98.911 98.792
2296.00 98.662 98.565 98.565 98.565 98.565 98.565
2320.00 98.564 98.564 98.564 98.564 98.564 98.564
2344.00 98.564 98.564 98.564 98.564 98.564 98.564
2368.00 98.563 98.563 98.563 98.563 98.563 98.575
2392.00 98.661 98.695 98.716 98.734 98.751 98.765
2416.00 98.771 98.775 98.784 98.801 98.825 98.853
2440.00 98.878 98.893 98.901 98.900 98.888 98.870
2464.00 98.857 98.846 98.825 98.795 98.768 98.753
2488.00 98.742 98.725 98.701 98.676 98.647 98.607
2512.00 98.552 98.491 98.433 98.379 98.331 98.294
2536.00 98.272 98.259 98.247 98.228 98.204 98.174
2560.00 98.139 98.098 98.051 98.003 97.948 97.880
2584.00 97.801 97.714 97.627 97.540 97.450 97.357
2608.00 97.274 97.214 97.169 97.119 97.060 97.002
2632.00 96.942 96.871 96.789 96.702 96.609 96.501
2656.00 96.372 96.222 96.064 95.912 95.782 95.684
2680.00 95.632 95.646 95.728 95.857 95.995 96.102
2704.00 96.157 96.149 96.093 96.012 95.904 95.753
2728.00 95.589 95.472 95.420 95.404 95.390 95.368
2752.00 95.329 95.262 95.162 95.034 94.880 94.684
2776.00 94.429 94.111 93.738 93.313 92.831 92.270
2800.00 91.596 90.797 89.850 88.732 87.426 85.871
2824.00 83.922 81.348 77.753 72.297 64.094 53.311
2848.00 42.151 34.585 33.724 38.686 45.413 50.852
2872.00 54.524 56.939 57.995 57.079 54.166 50.099
2896.00 45.706 41.291 36.457 31.220 25.177 18.204
2920.00 11.684 7.897 9.865 15.741 22.791 30.230
2944.00 36.951 41.881 44.880 47.197 50.379 54.853
2968.00 59.622 63.435 66.018 68.119 70.617 73.686
2992.00 76.976 80.156 83.100 85.667 87.745 89.347
3016.00 90.594 91.558 92.269 92.821 93.290 93.699
3040.00 94.045 94.328 94.565 94.777 94.972 95.143
3064.00 95.293 95.436 95.564 95.664 95.745 95.828
3088.00 95.908 95.961 95.988 96.017 96.061 96.095
3112.00 96.096 96.088 96.111 96.157 96.174 96.152
3136.00 96.141 96.161 96.170 96.146 96.125 96.142
3160.00 96.166 96.154 96.121 96.100 96.087 96.058
3184.00 96.023 96.006 96.003 95.991 95.970 95.964
3208.00 95.976 95.978 95.965 95.950 95.937 95.917
3232.00 95.888 95.865 95.859 95.857 95.843 95.816
3256.00 95.794 95.784 95.770 95.742 95.718 95.722
3280.00 95.739 95.732 95.695 95.657 95.633 95.602
3304.00 95.543 95.481 95.450 95.440 95.413 95.369
3328.00 95.326 95.290 95.249 95.207 95.171 95.147
3352.00 95.117 95.050 94.951 94.875 94.861 94.866
3376.00 94.834 94.776 94.719 94.649 94.553 94.469
3400.00 94.433 94.421 94.390 94.332 94.276 94.231
3424.00 94.177 94.093 93.990 93.867 93.677 93.421
3448.00 93.190 93.040 92.936 92.874 92.922 93.080
3472.00 93.253 93.369 93.446 93.518 93.599 93.670
3496.00 93.696 93.672 93.662 93.738 93.865 93.916
3520.00 93.839 93.753 93.796 93.930 93.999 93.932
3544.00 93.824 93.824 93.945 94.002 93.818 93.508
3568.00 93.440 93.677 93.867 93.763 93.449 93.192
3592.00 93.145 93.218 93.247 93.139 92.911 92.706
3616.00 92.686 92.780 92.775 92.712 92.870 93.169
3640.00 93.173 92.709 92.208 92.293 92.826 93.244
3664.00 93.226 92.725 92.194 92.313 92.753 92.832
3688.00 92.589 92.558 92.847 93.000 92.811 92.537
3712.00 92.463 92.520 92.506 92.341 92.032 91.691
3736.00 91.534 91.538 91.449 91.314 91.502 91.943
3760.00 92.242 92.294 92.325 92.443 92.485 92.394
3784.00 92.375 92.461 92.386 91.982 91.566 91.657
3808.00 91.989 92.086 91.805 91.566 91.636 91.647
3832.00 91.332 90.952 90.974 91.244 91.229 90.972
3856.00 90.959 91.136 91.105 90.945 91.028 91.247
3880.00 91.268 91.182 91.295 91.443 91.310 91.048
3904.00 91.119 91.477 91.642 91.495 91.302 91.255
3928.00 91.290 91.345 91.416 91.438 91.398 91.408
3952.00 91.505 91.588 91.602 91.591 91.577 91.552
3976.00 91.542 91.570 91.602 91.612 91.604 91.594
4000.00 91.566 