##TITLE= Pfeffer-Wyman Instruments
##JCAMP_DX= 4.24
##DATA TYPE= INFRARED SPECTRUM
##YUNITS= % Transmittance
##XUNITS= 1/CM
##FIRSTX= 400.00000
##LASTX= 4000.000
##XFACTOR= 1.00000000
##DELTAX= 4.0000000
##NPOINTS= 901
##XYDATA= (X++(Y..Y))
400.00 89.261 89.476 89.537 89.237 88.616 87.962
424.00 87.690 87.940 88.953 89.693 90.009 90.076
448.00 90.018 89.857 89.678 89.589 89.550 89.477
472.00 89.389 89.266 89.045 88.819 88.677 88.329
496.00 87.458 86.530 86.561 87.738 89.258 90.410
520.00 91.023 91.211 91.115 90.851 90.435 89.753
544.00 88.823 87.993 87.544 87.417 87.515 87.840
568.00 88.160 88.031 87.058 85.068 82.491 80.572
592.00 80.323 81.367 82.799 84.524 86.835 89.421
616.00 91.532 92.820 93.489 93.851 94.069 94.209
640.00 94.291 94.320 94.343 94.419 94.442 94.168
664.00 93.373 91.983 90.382 89.485 89.998 91.587
688.00 93.197 94.136 94.405 94.241 93.713 92.569
712.00 90.582 88.419 87.224 87.267 87.737 88.263
736.00 89.654 91.717 93.069 93.174 92.993 93.465
760.00 94.346 94.985 95.129 94.813 94.337 94.119
784.00 94.303 94.677 95.016 95.253 95.376 95.332
808.00 95.036 94.349 93.147 91.634 90.562 90.785
832.00 92.266 93.915 94.804 94.896 94.580 94.113
856.00 93.659 93.410 93.351 93.258 93.174 93.421
880.00 93.995 94.455 94.526 94.320 93.998 93.548
904.00 92.988 92.489 92.143 91.796 91.287 90.617
928.00 89.819 88.982 88.518 88.811 89.458 89.677
952.00 89.456 89.667 90.698 91.850 92.530 92.811
976.00 92.923 92.888 92.691 92.338 91.792 91.074
1000.00 90.129 88.677 86.644 84.511 82.442 79.528
1024.00 75.043 69.969 66.657 66.988 70.768 75.949
1048.00 80.243 82.422 82.474 81.209 79.903 79.524
1072.00 79.716 79.422 78.189 76.137 73.364 69.883
1096.00 66.336 64.108 64.344 66.830 70.224 73.420
1120.00 76.155 78.384 79.858 80.295 79.455 77.213
1144.00 73.771 69.642 65.466 61.961 59.684 58.517
1168.00 57.659 56.457 55.134 54.436 54.644 55.300
1192.00 55.815 56.007 56.155 56.955 58.995 61.808
1216.00 64.246 65.699 66.383 66.934 67.798 68.934
1240.00 70.046 71.050 72.178 73.543 74.875 75.900
1264.00 76.764 77.737 78.698 79.299 79.472 79.410
1288.00 79.140 78.513 77.627 76.999 77.073 77.753
1312.00 78.498 79.097 80.106 81.975 84.172 85.729
1336.00 86.233 85.980 85.544 85.500 86.081 86.657
1360.00 85.983 83.544 80.481 78.772 79.450 81.692
1384.00 83.822 84.827 84.723 84.091 83.511 83.374
1408.00 83.748 83.990 83.435 82.462 81.690 80.925
1432.00 79.848 78.595 77.418 76.275 74.986 73.312
1456.00 70.901 68.135 66.535 67.622 71.603 76.729
1480.00 81.102 84.296 86.529 88.296 90.070 91.680
1504.00 92.801 93.530 94.119 94.390 94.365 94.547
1528.00 94.965 94.981 94.402 93.861 94.002 94.321
1552.00 94.094 93.460 93.117 93.172 93.043 92.591
1576.00 92.157 91.848 91.481 91.014 90.452 89.545
1600.00 87.956 85.571 82.633 79.985 79.120 80.313
1624.00 81.861 81.900 79.989 77.561 76.770 78.140
1648.00 80.372 82.617 84.700 86.111 86.614 86.373
1672.00 85.725 84.765 83.335 81.658 80.403 79.815
1696.00 79.743 80.368 81.624 82.720 83.028 82.244
1720.00 80.293 77.065 71.643 63.060 53.784 50.101
1744.00 55.096 65.441 75.736 82.944 87.246 89.787
1768.00 91.393 92.607 93.722 94.650 95.238 95.556
1792.00 95.802 96.119 96.500 96.824 97.032 97.208
1816.00 97.386 97.443 97.335 97.278 97.445 97.641
1840.00 97.658 97.633 97.772 98.006 98.123 98.040
1864.00 97.845 97.715 97.755 97.880 97.920 97.825
1888.00 97.691 97.618 97.601 97.591 97.583 97.591
1912.00 97.594 97.566 97.565 97.671 97.844 97.945
1936.00 97.915 97.832 97.801 97.839 97.884 97.884
1960.00 97.839 97.791 97.768 97.769 97.778 97.767
1984.00 97.712 97.633 97.580 97.570 97.571 97.550
2008.00 97.495 97.415 97.326 97.250 97.197 97.158
2032.00 97.118 97.078 97.050 97.036 97.034 97.030
2056.00 97.012 96.981 96.949 96.926 96.915 96.916
2080.00 96.925 96.931 96.928 96.911 96.876 96.833
2104.00 96.801 96.795 96.805 96.812 96.810 96.797
2128.00 96.777 96.744 96.695 96.643 96.603 96.576
2152.00 96.547 96.510 96.468 96.424 96.380 96.346
2176.00 96.336 96.352 96.380 96.401 96.410 96.406
2200.00 96.386 96.356 96.324 96.294 96.261 96.224
2224.00 96.185 96.141 96.093 96.047 96.011 95.983
2248.00 95.960 95.937 95.911 95.876 95.831 95.779
2272.00 95.718 95.640 95.543 95.444 95.357 95.269
2296.00 95.160 95.059 95.014 94.964 94.910 94.857
2320.00 94.806 94.754 94.705 94.661 94.622 94.591
2344.00 94.575 94.557 94.510 94.434 94.363 94.326
2368.00 94.315 94.319 94.329 94.329 94.307 94.274
2392.00 94.278 94.249 94.217 94.199 94.196 94.198
2416.00 94.191 94.171 94.142 94.111 94.079 94.046
2440.00 94.006 93.954 93.889 93.814 93.727 93.628
2464.00 93.519 93.399 93.271 93.147 93.040 92.956
2488.00 92.888 92.840 92.818 92.821 92.835 92.837
2512.00 92.808 92.745 92.655 92.548 92.437 92.339
2536.00 92.259 92.189 92.111 92.010 91.884 91.738
2560.00 91.577 91.405 91.228 91.060 90.926 90.844
2584.00 90.818 90.834 90.873 90.916 90.939 90.935
2608.00 90.921 90.916 90.930 90.952 90.981 91.018
2632.00 91.052 91.059 91.024 90.946 90.837 90.704
2656.00 90.550 90.381 90.204 90.036 89.890 89.780
2680.00 89.719 89.709 89.740 89.793 89.852 89.906
2704.00 89.952 89.986 90.010 90.018 89.988 89.906
2728.00 89.793 89.695 89.625 89.563 89.487 89.393
2752.00 89.290 89.181 89.064 88.936 88.792 88.621
2776.00 88.410 88.154 87.851 87.508 87.128 86.703
2800.00 86.209 85.633 84.950 84.137 83.180 82.042
2824.00 80.636 78.814 76.305 72.502 66.677 58.694
2848.00 49.904 43.539 42.795 47.050 52.547 56.799
2872.00 59.582 61.372 62.136 61.446 59.262 56.154
2896.00 52.699 49.115 45.060 40.487 34.910 27.919
2920.00 20.568 15.706 18.333 25.342 32.760 39.856
2944.00 45.813 49.963 52.395 54.211 56.644 59.986
2968.00 63.448 66.136 67.902 69.311 70.988 73.048
2992.00 75.238 77.325 79.227 80.854 82.137 83.091
3016.00 83.834 84.462 84.982 85.389 85.703 85.964
3040.00 86.191 86.378 86.537 86.691 86.837 86.955
3064.00 87.047 87.127 87.186 87.208 87.211 87.224
3088.00 87.234 87.203 87.152 87.168 87.284 87.423
3112.00 87.507 87.554 87.616 87.694 87.744 87.763
3136.00 87.786 87.823 87.848 87.849 87.848 87.865
3160.00 87.878 87.858 87.816 87.778 87.742 87.687
3184.00 87.620 87.558 87.503 87.446 87.387 87.341
3208.00 87.305 87.258 87.196 87.129 87.059 86.979
3232.00 86.887 86.790 86.698 86.609 86.515 86.418
3256.00 86.332 86.263 86.189 86.093 85.988 85.894
3280.00 85.803 85.687 85.535 85.366 85.199 85.023
3304.00 84.823 84.608 84.405 84.214 84.016 83.803
3328.00 83.586 83.372 83.149 82.895 82.603 82.273
3352.00 81.877 81.385 80.920 80.707 80.802 80.981
3376.00 81.018 80.909 80.749 80.562 80.337 80.102
3400.00 79.898 79.726 79.557 79.348 79.082 78.831
3424.00 78.684 78.582 78.466 78.350 78.242 78.223
3448.00 78.330 78.465 78.551 78.616 78.751 78.968
3472.00 79.199 79.399 79.582 79.776 80.001 80.263
3496.00 80.547 80.829 81.132 81.506 81.927 82.291
3520.00 82.551 82.803 83.161 83.595 83.972 84.227
3544.00 84.426 84.704 85.086 85.411 85.516 85.502
3568.00 85.710 86.194 86.630 86.795 86.772 86.804
3592.00 87.022 87.334 87.593 87.719 87.730 87.753
3616.00 87.928 88.188 88.344 88.452 88.775 89.225
3640.00 89.376 89.068 88.719 88.894 89.465 89.909
3664.00 89.915 89.457 88.994 89.142 89.582 89.683
3688.00 89.487 89.486 89.766 89.905 89.715 89.444
3712.00 89.360 89.413 89.408 89.249 88.941 88.608
3736.00 88.439 88.390 88.247 88.101 88.296 88.742
3760.00 89.044 89.096 89.115 89.210 89.246 89.174
3784.00 89.163 89.228 89.128 88.726 88.318 88.359
3808.00 88.632 88.686 88.401 88.172 88.251 88.287
3832.00 87.995 87.639 87.669 87.907 87.844 87.564
3856.00 87.556 87.751 87.735 87.575 87.639 87.832
3880.00 87.832 87.722 87.796 87.911 87.775 87.530
3904.00 87.593 87.923 88.089 87.976 87.821 87.788
3928.00 87.812 87.843 87.883 87.880 87.822 87.811
3952.00 87.876 87.928 87.918 87.888 87.858 87.822
3976.00 87.803 87.816 87.831 87.830 87.820 87.812
4000.00 87.789 