##TITLE= Pfeffer-Wyman Instruments
##JCAMP_DX= 4.24
##DATA TYPE= INFRARED SPECTRUM
##YUNITS= % Transmittance
##XUNITS= 1/CM
##FIRSTX= 400.00000
##LASTX= 4000.000
##XFACTOR= 1.00000000
##DELTAX= 4.0000000
##NPOINTS= 901
##XYDATA= (X++(Y..Y))
400.00 87.051 87.738 88.327 88.308 87.917 87.762
424.00 88.110 88.603 89.318 89.698 89.864 89.938
448.00 89.857 89.556 89.221 89.125 89.242 89.383
472.00 89.551 89.778 89.893 89.804 89.645 89.445
496.00 89.090 88.754 88.908 89.623 90.467 91.104
520.00 91.527 91.827 92.005 92.013 91.829 91.486
544.00 91.128 90.950 90.953 90.992 90.945 90.849
568.00 90.705 90.412 89.808 88.725 87.279 86.128
592.00 85.951 86.652 87.723 88.985 90.430 91.844
616.00 92.905 93.481 93.716 93.919 94.197 94.375
640.00 94.291 94.027 93.848 93.921 94.084 93.945
664.00 93.289 92.319 91.449 90.964 91.105 92.021
688.00 93.378 94.466 94.837 94.541 93.868 93.000
712.00 91.894 90.745 90.073 90.174 90.577 90.501
736.00 89.903 89.125 88.680 88.944 89.864 91.216
760.00 92.562 93.523 94.022 94.143 94.080 94.119
784.00 94.434 94.904 95.231 95.235 94.972 94.594
808.00 94.137 93.482 92.487 91.207 90.035 89.538
832.00 89.970 91.016 92.138 92.977 93.405 93.391
856.00 93.010 92.501 92.141 92.132 92.536 93.229
880.00 93.897 94.270 94.371 94.385 94.375 94.256
904.00 93.978 93.626 93.326 93.140 93.038 92.931
928.00 92.696 92.290 91.895 91.769 91.856 91.879
952.00 91.783 91.838 92.100 92.200 91.900 91.264
976.00 90.292 88.760 86.533 84.033 82.471 82.845
1000.00 84.195 84.688 83.792 82.281 80.722 78.479
1024.00 74.784 70.239 66.918 66.761 69.715 74.006
1048.00 77.769 80.037 80.716 80.139 78.955 78.146
1072.00 78.252 78.591 78.199 76.722 74.264 71.222
1096.00 68.545 67.482 68.542 70.773 73.026 75.111
1120.00 77.153 78.923 80.023 80.176 79.204 77.098
1144.00 74.157 70.861 67.674 64.975 62.908 61.207
1168.00 59.403 57.467 56.049 55.713 56.289 57.213
1192.00 58.104 58.861 59.465 60.056 60.816 61.566
1216.00 62.033 62.401 63.110 64.324 65.867 67.442
1240.00 68.819 70.012 71.228 72.568 73.898 75.056
1264.00 76.033 76.886 77.634 78.307 78.970 79.603
1288.00 80.007 79.956 79.504 79.078 79.068 79.420
1312.00 79.793 80.114 80.770 81.947 83.244 84.087
1336.00 84.325 84.227 84.118 84.223 84.549 84.540
1360.00 83.240 80.299 76.698 74.187 73.952 75.734
1384.00 78.063 79.390 79.044 77.590 76.452 77.136
1408.00 79.037 80.320 80.512 80.460 80.747 80.823
1432.00 80.122 78.731 77.063 75.450 74.080 72.721
1456.00 70.870 68.948 68.264 69.781 73.556 78.180
1480.00 81.829 84.197 86.022 87.912 89.693 90.757
1504.00 90.969 91.034 91.472 91.632 91.350 91.518
1528.00 92.262 92.454 91.641 90.793 91.171 91.898
1552.00 91.608 90.346 89.225 88.807 88.452 87.753
1576.00 86.751 85.544 84.660 84.870 85.671 85.756
1600.00 84.335 81.238 76.795 72.826 73.279 76.667
1624.00 79.330 80.174 79.381 78.151 77.650 77.361
1648.00 76.716 77.422 79.627 80.525 79.944 78.990
1672.00 78.674 78.930 79.242 79.624 80.103 80.279
1696.00 79.994 80.009 80.832 81.497 81.172 79.897
1720.00 78.146 75.624 71.195 64.032 56.300 53.359
1744.00 57.921 67.023 76.090 82.582 86.514 88.786
1768.00 90.135 91.155 92.215 93.188 93.785 94.020
1792.00 94.180 94.555 95.152 95.739 96.179 96.560
1816.00 96.918 97.061 96.922 96.855 97.143 97.455
1840.00 97.456 97.368 97.544 97.889 98.083 98.001
1864.00 97.757 97.610 97.723 97.948 98.021 97.882
1888.00 97.693 97.614 97.644 97.683 97.681 97.651
1912.00 97.602 97.526 97.490 97.606 97.839 97.999
1936.00 97.978 97.879 97.875 97.991 98.110 98.138
1960.00 98.084 98.021 98.002 98.031 98.076 98.089
1984.00 98.044 97.978 97.962 98.008 98.054 98.048
2008.00 97.987 97.889 97.781 97.702 97.674 97.674
2032.00 97.660 97.617 97.567 97.540 97.543 97.558
2056.00 97.555 97.525 97.489 97.462 97.446 97.432
2080.00 97.420 97.408 97.405 97.418 97.445 97.476
2104.00 97.507 97.536 97.556 97.563 97.562 97.568
2128.00 97.581 97.589 97.581 97.562 97.542 97.527
2152.00 97.515 97.505 97.493 97.475 97.454 97.433
2176.00 97.420 97.418 97.419 97.420 97.420 97.416
2200.00 97.401 97.376 97.351 97.330 97.303 97.264
2224.00 97.220 97.180 97.140 97.103 97.076 97.059
2248.00 97.042 97.027 97.010 96.988 96.961 96.930
2272.00 96.898 96.856 96.799 96.734 96.668 96.597
2296.00 96.513 96.442 96.421 96.399 96.377 96.358
2320.00 96.342 96.328 96.315 96.303 96.290 96.278
2344.00 96.271 96.266 96.257 96.242 96.231 96.231
2368.00 96.236 96.243 96.249 96.249 96.240 96.230
2392.00 96.255 96.254 96.248 96.250 96.257 96.264
2416.00 96.262 96.249 96.228 96.200 96.172 96.149
2440.00 96.128 96.107 96.080 96.045 95.998 95.943
2464.00 95.884 95.820 95.748 95.682 95.635 95.623
2488.00 95.626 95.631 95.640 95.659 95.684 95.693
2512.00 95.675 95.634 95.581 95.512 95.431 95.348
2536.00 95.279 95.222 95.164 95.097 95.021 94.939
2560.00 94.847 94.744 94.630 94.518 94.428 94.369
2584.00 94.334 94.305 94.283 94.282 94.296 94.303
2608.00 94.297 94.288 94.280 94.263 94.238 94.221
2632.00 94.213 94.201 94.170 94.113 94.039 93.956
2656.00 93.866 93.767 93.661 93.557 93.463 93.389
2680.00 93.344 93.335 93.356 93.394 93.432 93.462
2704.00 93.476 93.473 93.458 93.432 93.378 93.283
2728.00 93.166 93.067 92.997 92.942 92.880 92.798
2752.00 92.700 92.599 92.505 92.408 92.287 92.132
2776.00 91.947 91.738 91.500 91.225 90.907 90.537
2800.00 90.107 89.622 89.066 88.409 87.633 86.703
2824.00 85.538 84.001 81.846 78.524 73.346 66.100
2848.00 57.904 51.788 51.015 55.031 60.122 63.958
2872.00 66.414 67.990 68.675 68.053 66.052 63.162
2896.00 59.906 56.486 52.596 48.185 42.725 35.649
2920.00 27.819 22.328 25.248 32.732 40.221 47.117
2944.00 52.778 56.665 58.900 60.508 62.626 65.511
2968.00 68.441 70.627 71.976 73.029 74.363 76.074
2992.00 77.891 79.530 80.876 81.937 82.848 83.775
3016.00 84.790 85.832 86.778 87.544 88.116 88.535
3040.00 88.832 89.007 89.068 89.062 89.049 89.066
3064.00 89.115 89.174 89.204 89.171 89.087 88.988
3088.00 88.893 88.820 88.825 88.960 89.194 89.433
3112.00 89.610 89.729 89.815 89.868 89.881 89.872
3136.00 89.874 89.888 89.880 89.834 89.777 89.725
3160.00 89.660 89.561 89.446 89.352 89.272 89.171
3184.00 89.048 88.928 88.812 88.676 88.522 88.379
3208.00 88.256 88.127 87.975 87.809 87.654 87.506
3232.00 87.341 87.159 86.992 86.853 86.718 86.570
3256.00 86.432 86.320 86.204 86.053 85.886 85.740
3280.00 85.617 85.478 85.305 85.118 84.933 84.726
3304.00 84.456 84.130 83.797 83.481 83.165 82.839
3328.00 82.517 82.204 81.889 81.554 81.173 80.717
3352.00 80.169 79.523 78.807 78.118 77.537 76.998
3376.00 76.354 75.554 74.647 73.654 72.574 71.467
3400.00 70.456 69.621 68.822 67.671 65.983 64.384
3424.00 63.664 63.409 63.123 63.012 63.345 64.681
3448.00 66.872 68.854 70.109 70.886 71.635 72.525
3472.00 73.401 74.099 74.683 75.317 76.045 76.731
3496.00 77.251 77.651 78.140 78.870 79.704 80.345
3520.00 80.704 81.049 81.677 82.498 83.174 83.543
3544.00 83.773 84.228 84.991 85.643 85.799 85.710
3568.00 86.165 87.189 88.028 88.312 88.272 88.366
3592.00 88.771 89.303 89.755 90.016 90.057 90.061
3616.00 90.306 90.736 91.019 91.186 91.660 92.327
3640.00 92.552 92.068 91.497 91.766 92.645 93.309
3664.00 93.329 92.645 91.882 92.065 92.750 92.954
3688.00 92.696 92.686 93.089 93.290 93.004 92.586
3712.00 92.450 92.525 92.515 92.285 91.821 91.279
3736.00 90.992 90.966 90.837 90.645 90.931 91.618
3760.00 92.120 92.263 92.348 92.530 92.605 92.515
3784.00 92.528 92.655 92.518 91.900 91.230 91.224
3808.00 91.627 91.677 91.159 90.707 90.828 90.995
3832.00 90.626 90.067 90.093 90.489 90.449 90.028
3856.00 89.976 90.229 90.176 89.913 90.011 90.317
3880.00 90.321 90.137 90.238 90.414 90.195 89.785
3904.00 89.885 90.440 90.728 90.552 90.280 90.198
3928.00 90.237 90.316 90.412 90.411 90.299 90.264
3952.00 90.374 90.480 90.495 90.472 90.435 90.380
3976.00 90.352 90.367 90.359 90.296 90.226 90.193
4000.00 90.162 