##TITLE= Pfeffer-Wyman Instruments
##JCAMP_DX= 4.24
##DATA TYPE= INFRARED SPECTRUM
##YUNITS= % Transmittance
##XUNITS= 1/CM
##FIRSTX= 400.00000
##LASTX= 4000.000
##XFACTOR= 1.00000000
##DELTAX= 4.0000000
##NPOINTS= 901
##XYDATA= (X++(Y..Y))
400.00 76.765 77.767 78.768 79.321 79.682 80.112
424.00 80.667 81.145 81.718 82.188 82.668 83.139
448.00 83.494 83.660 83.695 83.766 83.936 84.105
472.00 84.208 84.196 83.878 83.164 82.361 81.955
496.00 82.161 82.805 83.573 84.246 84.736 85.052
520.00 85.236 85.294 85.164 84.740 84.071 83.621
544.00 84.006 85.134 86.201 86.598 86.506 86.526
568.00 86.954 87.577 88.013 88.094 87.956 87.864
592.00 87.992 88.313 88.726 89.181 89.652 90.094
616.00 90.438 90.629 90.732 90.909 91.192 91.435
640.00 91.550 91.597 91.693 91.896 92.082 92.012
664.00 91.668 91.358 91.307 91.370 91.462 91.831
688.00 92.552 93.235 93.477 93.260 92.852 92.449
712.00 91.963 91.345 90.821 90.670 90.641 89.916
736.00 87.931 84.758 81.316 78.814 78.055 79.182
760.00 81.516 83.991 85.883 87.086 88.069 89.319
784.00 90.795 92.077 92.787 92.755 92.090 91.201
808.00 90.490 90.004 89.542 89.035 88.667 88.696
832.00 89.226 90.102 90.978 91.490 91.279 90.030
856.00 87.876 85.641 84.335 84.452 85.738 87.535
880.00 89.013 89.706 89.861 90.026 90.326 90.373
904.00 89.810 88.789 87.940 87.884 88.729 89.970
928.00 90.846 90.829 89.960 88.871 88.344 88.685
952.00 89.546 90.338 90.673 90.447 89.705 88.460
976.00 86.442 83.146 78.497 73.827 71.582 72.984
1000.00 76.047 77.633 76.651 74.120 71.291 68.543
1024.00 65.830 63.416 62.151 63.007 65.975 69.765
1048.00 72.787 74.324 74.736 74.725 74.753 75.207
1072.00 76.313 77.494 77.889 77.039 74.975 72.362
1096.00 70.489 70.137 70.616 70.752 70.544 70.825
1120.00 71.773 72.671 72.759 71.731 69.650 66.846
1144.00 63.824 61.006 58.634 56.828 55.550 54.490
1168.00 53.245 51.824 50.849 50.909 51.977 53.588
1192.00 55.324 56.992 58.412 59.358 59.692 59.458
1216.00 58.925 58.573 58.798 59.565 60.518 61.329
1240.00 61.856 62.180 62.492 62.902 63.384 63.864
1264.00 64.309 64.739 65.271 66.111 67.398 68.974
1288.00 70.368 71.073 70.942 70.310 69.589 68.849
1312.00 67.992 67.110 66.545 66.566 67.169 68.190
1336.00 69.521 71.081 72.675 74.068 75.023 75.002
1360.00 73.220 69.583 65.394 62.589 62.284 64.103
1384.00 66.561 68.132 68.243 67.475 67.000 67.908
1408.00 69.770 71.429 72.641 73.740 74.857 75.500
1432.00 75.126 73.660 71.619 69.838 68.960 68.837
1456.00 68.538 67.697 67.292 68.510 71.470 74.990
1480.00 78.132 81.147 84.282 87.139 89.173 90.297
1504.00 90.776 91.115 91.650 92.069 92.249 92.619
1528.00 93.255 93.582 93.373 93.127 93.461 93.914
1552.00 93.790 93.051 92.213 91.699 91.345 90.848
1576.00 89.941 88.648 87.782 88.296 89.681 90.662
1600.00 90.656 89.703 88.002 86.269 86.234 87.209
1624.00 87.711 87.479 86.701 85.865 85.280 84.548
1648.00 83.426 82.670 82.334 81.253 79.400 77.440
1672.00 76.050 75.172 74.401 73.567 72.487 71.001
1696.00 69.268 67.799 66.870 66.046 64.904 63.390
1720.00 61.764 60.024 57.574 53.745 49.566 48.514
1744.00 52.797 60.625 68.791 75.230 79.639 82.556
1768.00 84.537 85.979 87.109 87.927 88.411 88.730
1792.00 89.190 90.024 91.174 92.343 93.317 94.119
1816.00 94.804 95.303 95.593 95.869 96.288 96.690
1840.00 96.912 97.070 97.338 97.657 97.852 97.858
1864.00 97.741 97.638 97.641 97.690 97.670 97.574
1888.00 97.499 97.521 97.623 97.738 97.826 97.889
1912.00 97.937 97.973 98.029 98.151 98.320 98.443
1936.00 98.471 98.464 98.522 98.654 98.779 98.841
1960.00 98.857 98.872 98.903 98.944 98.985 99.012
1984.00 99.010 98.982 98.953 98.925 98.875 98.785
2008.00 98.668 98.549 98.459 98.420 98.425 98.432
2032.00 98.395 98.300 98.183 98.109 98.121 98.210
2056.00 98.317 98.386 98.398 98.362 98.301 98.246
2080.00 98.225 98.248 98.312 98.409 98.520 98.622
2104.00 98.700 98.755 98.798 98.842 98.894 98.959
2128.00 99.027 99.079 99.103 99.104 99.096 99.089
2152.00 99.085 99.081 99.073 99.056 99.025 98.978
2176.00 98.919 98.859 98.806 98.771 98.754 98.744
2200.00 98.726 98.695 98.656 98.612 98.556 98.479
2224.00 98.387 98.292 98.209 98.146 98.107 98.088
2248.00 98.084 98.106 98.150 98.201 98.244 98.275
2272.00 98.295 98.295 98.272 98.229 98.169 98.095
2296.00 98.011 97.941 97.913 97.892 97.883 97.889
2320.00 97.912 97.947 97.983 98.012 98.025 98.019
2344.00 98.005 98.012 98.068 98.167 98.277 98.363
2368.00 98.418 98.443 98.443 98.433 98.422 98.416
2392.00 98.441 98.451 98.465 98.483 98.501 98.510
2416.00 98.502 98.478 98.443 98.408 98.383 98.372
2440.00 98.365 98.351 98.316 98.251 98.161 98.070
2464.00 98.000 97.956 97.924 97.900 97.892 97.915
2488.00 97.955 97.986 98.006 98.024 98.045 98.061
2512.00 98.062 98.052 98.032 97.995 97.939 97.873
2536.00 97.807 97.745 97.682 97.618 97.555 97.493
2560.00 97.423 97.333 97.220 97.095 96.977 96.878
2584.00 96.788 96.693 96.595 96.513 96.447 96.378
2608.00 96.287 96.176 96.051 95.917 95.784 95.668
2632.00 95.576 95.508 95.461 95.434 95.426 95.432
2656.00 95.439 95.439 95.428 95.407 95.375 95.331
2680.00 95.283 95.242 95.213 95.196 95.182 95.162
2704.00 95.122 95.052 94.954 94.837 94.701 94.545
2728.00 94.387 94.259 94.165 94.085 93.997 93.895
2752.00 93.781 93.665 93.554 93.443 93.318 93.173
2776.00 93.012 92.850 92.687 92.504 92.278 91.993
2800.00 91.647 91.247 90.780 90.232 89.599 88.867
2824.00 87.974 86.805 85.163 82.619 78.613 72.889
2848.00 66.199 60.991 60.168 63.266 66.999 69.483
2872.00 70.839 71.714 72.165 71.701 70.041 67.476
2896.00 64.461 61.251 57.741 54.028 49.669 43.866
2920.00 36.855 31.412 34.013 40.514 46.555 52.004
2944.00 56.571 59.771 61.467 62.329 63.301 64.670
2968.00 65.882 66.344 66.156 66.022 66.596 67.982
2992.00 69.844 71.784 73.560 75.026 76.132 77.013
3016.00 78.066 79.711 81.947 84.251 86.132 87.462
3040.00 88.343 88.884 89.161 89.264 89.292 89.306
3064.00 89.312 89.284 89.185 88.982 88.637 88.141
3088.00 87.570 87.071 86.762 86.670 86.771 87.039
3112.00 87.402 87.735 87.942 88.006 87.963 87.858
3136.00 87.729 87.581 87.395 87.165 86.913 86.653
3160.00 86.377 86.072 85.753 85.439 85.130 84.810
3184.00 84.478 84.143 83.801 83.441 83.069 82.705
3208.00 82.354 81.996 81.620 81.236 80.862 80.498
3232.00 80.128 79.752 79.388 79.040 78.694 78.346
3256.00 78.013 77.699 77.385 77.054 76.717 76.396
3280.00 76.092 75.789 75.473 75.150 74.831 74.510
3304.00 74.172 73.815 73.453 73.102 72.764 72.451
3328.00 72.168 71.908 71.658 71.408 71.151 70.875
3352.00 70.567 70.222 69.849 69.479 69.144 68.826
3376.00 68.482 68.098 67.686 67.244 66.768 66.287
3400.00 65.856 65.506 65.181 64.730 64.079 63.459
3424.00 63.174 63.071 62.966 62.936 63.079 63.608
3448.00 64.473 65.276 65.823 66.201 66.589 67.061
3472.00 67.554 67.999 68.422 68.891 69.428 69.979
3496.00 70.496 71.003 71.601 72.362 73.229 74.066
3520.00 74.827 75.621 76.572 77.631 78.641 79.521
3544.00 80.342 81.265 82.330 83.347 84.120 84.743
3568.00 85.585 86.674 87.644 88.287 88.702 89.126
3592.00 89.670 90.255 90.776 91.178 91.459 91.718
3616.00 92.090 92.529 92.855 93.090 93.468 93.940
3640.00 94.168 94.004 93.781 94.010 94.585 95.059
3664.00 95.178 94.892 94.548 94.723 95.180 95.361
3688.00 95.269 95.310 95.588 95.752 95.631 95.420
3712.00 95.356 95.407 95.412 95.299 95.054 94.760
3736.00 94.605 94.596 94.526 94.414 94.561 94.931
3760.00 95.199 95.267 95.306 95.405 95.448 95.397
3784.00 95.397 95.463 95.393 95.064 94.711 94.732
3808.00 94.972 95.012 94.725 94.467 94.522 94.600
3832.00 94.384 94.057 94.055 94.269 94.249 94.012
3856.00 93.975 94.114 94.083 93.929 93.973 94.141
3880.00 94.142 94.030 94.074 94.164 94.031 93.785
3904.00 93.820 94.114 94.268 94.169 94.020 93.985
3928.00 94.020 94.074 94.137 94.145 94.079 94.042
3952.00 94.084 94.131 94.138 94.135 94.134 94.118
3976.00 94.102 94.100 94.083 94.029 93.958 93.891
4000.00 93.818 