##TITLE= Pfeffer-Wyman Instruments
##JCAMP_DX= 4.24
##DATA TYPE= INFRARED SPECTRUM
##YUNITS= % Transmittance
##XUNITS= 1/CM
##FIRSTX= 400.00000
##LASTX= 4000.000
##XFACTOR= 1.00000000
##DELTAX= 4.0000000
##NPOINTS= 901
##XYDATA= (X++(Y..Y))
400.00 86.768 87.480 88.133 88.217 87.942 87.871
424.00 88.251 88.727 89.342 89.635 89.727 89.706
448.00 89.498 89.035 88.507 88.219 88.191 88.229
472.00 88.264 88.243 88.016 87.643 87.310 86.822
496.00 85.890 85.064 85.473 87.173 89.061 90.347
520.00 91.038 91.392 91.471 91.205 90.573 89.652
544.00 88.718 88.243 88.495 89.260 90.059 90.640
568.00 90.968 91.033 90.748 89.981 88.848 87.923
592.00 87.787 88.375 89.273 90.319 91.497 92.634
616.00 93.455 93.829 93.899 94.006 94.285 94.518
640.00 94.459 94.175 93.973 94.006 94.080 93.840
664.00 93.037 91.699 90.304 89.566 89.937 91.288
688.00 92.941 94.106 94.436 94.088 93.383 92.407
712.00 91.063 89.786 89.392 89.967 90.518 90.066
736.00 88.729 87.087 85.854 85.565 86.381 88.267
760.00 90.524 92.216 93.045 93.262 93.253 93.300
784.00 93.524 93.843 94.024 93.900 93.499 92.937
808.00 92.248 91.318 89.894 87.864 85.789 84.848
832.00 85.669 87.566 89.430 90.703 91.351 91.398
856.00 90.921 90.204 89.532 89.108 89.193 89.935
880.00 90.989 91.757 92.045 92.067 91.988 91.757
904.00 91.306 90.719 90.143 89.640 89.179 88.651
928.00 87.886 86.884 86.160 86.264 86.818 86.947
952.00 86.627 86.833 87.898 88.872 89.044 88.555
976.00 87.566 85.831 83.204 80.245 78.450 79.079
1000.00 80.951 81.674 80.613 79.171 78.424 77.306
1024.00 74.297 69.892 66.568 66.523 69.646 73.997
1048.00 77.627 79.623 79.986 79.076 77.461 76.141
1072.00 75.911 76.300 76.300 75.263 73.076 70.114
1096.00 67.402 66.399 67.868 70.781 73.609 75.963
1120.00 78.020 79.674 80.627 80.676 79.702 77.714
1144.00 74.993 71.976 69.060 66.552 64.549 62.760
1168.00 60.733 58.565 57.069 56.789 57.361 58.064
1192.00 58.471 58.458 58.078 57.905 58.652 59.963
1216.00 60.955 61.608 62.515 63.941 65.678 67.399
1240.00 68.869 70.066 71.162 72.265 73.261 73.995
1264.00 74.472 74.771 74.897 74.880 74.850 74.896
1288.00 74.871 74.531 73.911 73.433 73.551 74.346
1312.00 75.427 76.392 77.363 78.637 80.133 81.401
1336.00 82.129 82.403 82.522 82.748 83.085 82.993
1360.00 81.614 78.659 75.024 72.305 71.686 73.121
1384.00 75.292 76.483 75.734 73.613 71.960 72.599
1408.00 74.616 75.784 75.695 75.316 75.203 74.950
1432.00 74.324 73.528 72.721 71.971 71.440 70.965
1456.00 70.023 68.842 68.532 69.971 73.197 76.935
1480.00 79.607 80.987 81.900 83.401 85.641 87.663
1504.00 88.825 89.507 90.187 90.446 90.252 90.441
1528.00 91.121 91.256 90.433 89.561 89.814 90.393
1552.00 90.018 88.658 87.302 86.586 86.056 85.275
1576.00 84.063 82.458 81.300 81.688 83.008 83.663
1600.00 82.805 80.333 76.553 73.040 73.272 75.958
1624.00 77.966 78.436 77.554 76.333 75.710 75.143
1648.00 74.071 73.896 74.788 74.542 73.073 71.357
1672.00 70.341 69.967 69.686 69.450 69.478 69.748
1696.00 70.249 71.419 73.257 74.766 75.375 75.215
1720.00 74.572 73.072 69.771 63.992 57.555 55.211
1744.00 59.506 67.749 75.875 81.729 85.344 87.489
1768.00 88.808 89.832 90.878 91.801 92.338 92.528
1792.00 92.671 93.037 93.617 94.184 94.606 94.971
1816.00 95.325 95.484 95.368 95.301 95.573 95.898
1840.00 95.948 95.910 96.102 96.445 96.643 96.580
1864.00 96.361 96.219 96.304 96.491 96.542 96.395
1888.00 96.194 96.072 96.017 95.962 95.917 95.917
1912.00 95.920 95.875 95.862 96.017 96.301 96.511
1936.00 96.534 96.471 96.485 96.603 96.721 96.753
1960.00 96.709 96.652 96.630 96.647 96.685 96.705
1984.00 96.677 96.629 96.620 96.662 96.705 96.705
2008.00 96.659 96.577 96.478 96.395 96.360 96.359
2032.00 96.349 96.304 96.240 96.197 96.191 96.204
2056.00 96.203 96.178 96.140 96.104 96.073 96.046
2080.00 96.021 95.996 95.975 95.963 95.957 95.957
2104.00 95.971 96.003 96.033 96.044 96.039 96.034
2128.00 96.032 96.025 96.004 95.976 95.955 95.941
2152.00 95.927 95.907 95.874 95.826 95.770 95.721
2176.00 95.700 95.713 95.747 95.781 95.803 95.806
2200.00 95.789 95.758 95.726 95.699 95.667 95.622
2224.00 95.570 95.516 95.460 95.405 95.360 95.331
2248.00 95.302 95.275 95.245 95.206 95.159 95.108
2272.00 95.050 94.970 94.869 94.773 94.700 94.635
2296.00 94.552 94.464 94.412 94.355 94.296 94.239
2320.00 94.189 94.140 94.094 94.054 94.016 93.985
2344.00 93.971 93.958 93.919 93.851 93.792 93.770
2368.00 93.775 93.792 93.812 93.818 93.797 93.758
2392.00 93.740 93.698 93.662 93.647 93.651 93.660
2416.00 93.657 93.631 93.584 93.520 93.449 93.379
2440.00 93.312 93.241 93.162 93.072 92.968 92.853
2464.00 92.729 92.594 92.453 92.324 92.223 92.163
2488.00 92.131 92.124 92.145 92.192 92.248 92.280
2512.00 92.268 92.212 92.119 91.994 91.850 91.711
2536.00 91.594 91.493 91.385 91.254 91.102 90.934
2560.00 90.751 90.552 90.339 90.136 89.982 89.910
2584.00 89.914 89.964 90.046 90.161 90.286 90.387
2608.00 90.449 90.488 90.516 90.535 90.553 90.585
2632.00 90.626 90.655 90.645 90.586 90.491 90.381
2656.00 90.262 90.135 90.002 89.871 89.753 89.661
2680.00 89.606 89.587 89.592 89.604 89.615 89.630
2704.00 89.659 89.701 89.753 89.796 89.797 89.740
2728.00 89.645 89.548 89.462 89.372 89.264 89.130
2752.00 88.983 88.846 88.728 88.615 88.481 88.313
2776.00 88.115 87.894 87.645 87.361 87.037 86.667
2800.00 86.250 85.794 85.286 84.689 83.983 83.142
2824.00 82.102 80.755 78.903 76.086 71.709 65.539
2848.00 58.460 53.091 52.403 55.930 60.334 63.593
2872.00 65.647 66.954 67.518 66.987 65.283 62.802
2896.00 59.971 56.969 53.538 49.635 44.760 38.312
2920.00 30.948 25.609 28.487 35.658 42.623 48.902
2944.00 53.980 57.425 59.363 60.703 62.443 64.815
2968.00 67.197 68.924 69.933 70.703 71.732 73.098
2992.00 74.545 75.801 76.755 77.453 78.088 78.862
3016.00 79.849 80.974 82.071 82.974 83.627 84.083
3040.00 84.401 84.586 84.649 84.646 84.651 84.699
3064.00 84.784 84.880 84.932 84.891 84.767 84.619
3088.00 84.483 84.377 84.375 84.575 84.951 85.353
3112.00 85.659 85.872 86.037 86.160 86.235 86.291
3136.00 86.364 86.446 86.501 86.517 86.515 86.512
3160.00 86.492 86.436 86.368 86.322 86.290 86.240
3184.00 86.167 86.091 86.015 85.919 85.807 85.707
3208.00 85.625 85.537 85.424 85.297 85.181 85.073
3232.00 84.950 84.811 84.686 84.590 84.498 84.393
3256.00 84.299 84.231 84.160 84.051 83.917 83.794
3280.00 83.688 83.571 83.427 83.268 83.108 82.928
3304.00 82.689 82.390 82.071 81.767 81.480 81.206
3328.00 80.956 80.734 80.517 80.277 79.988 79.625
3352.00 79.176 78.636 78.034 77.455 76.957 76.482
3376.00 75.910 75.208 74.420 73.561 72.624 71.660
3400.00 70.778 70.050 69.353 68.345 66.860 65.451
3424.00 64.822 64.609 64.367 64.277 64.576 65.764
3448.00 67.714 69.478 70.600 71.297 71.967 72.755
3472.00 73.525 74.134 74.636 75.171 75.786 76.388
3496.00 76.880 77.285 77.762 78.440 79.207 79.806
3520.00 80.157 80.495 81.085 81.851 82.488 82.847
3544.00 83.077 83.504 84.209 84.817 84.975 84.903
3568.00 85.321 86.262 87.041 87.308 87.270 87.354
3592.00 87.728 88.221 88.637 88.868 88.893 88.884
3616.00 89.098 89.480 89.725 89.865 90.297 90.916
3640.00 91.125 90.666 90.122 90.358 91.167 91.785
3664.00 91.803 91.164 90.454 90.626 91.273 91.473
3688.00 91.236 91.228 91.607 91.797 91.526 91.126
3712.00 90.993 91.066 91.067 90.860 90.427 89.920
3736.00 89.655 89.632 89.510 89.328 89.593 90.235
3760.00 90.707 90.840 90.916 91.085 91.161 91.088
3784.00 91.111 91.236 91.114 90.542 89.922 89.914
3808.00 90.289 90.336 89.850 89.425 89.535 89.693
3832.00 89.348 88.828 88.860 89.239 89.207 88.817
3856.00 88.773 89.018 88.976 88.727 88.806 89.081
3880.00 89.076 88.893 88.974 89.132 88.927 88.547
3904.00 88.642 89.168 89.453 89.308 89.073 89.014
3928.00 89.062 89.139 89.227 89.225 89.119 89.079
3952.00 89.171 89.260 89.268 89.243 89.205 89.150
3976.00 89.120 89.131 89.123 89.068 89.008 88.979
4000.00 88.952 