##TITLE= Pfeffer-Wyman Instruments
##JCAMP_DX= 4.24
##DATA TYPE= INFRARED SPECTRUM
##YUNITS= % Transmittance
##XUNITS= 1/CM
##FIRSTX= 400.00000
##LASTX= 4000.000
##XFACTOR= 1.00000000
##DELTAX= 4.0000000
##NPOINTS= 901
##XYDATA= (X++(Y..Y))
400.00 80.232 81.145 82.275 83.091 83.633 84.124
424.00 84.698 85.225 85.892 86.322 86.509 86.386
448.00 85.838 84.838 83.659 82.849 82.770 83.317
472.00 84.183 85.013 85.462 85.400 84.994 84.497
496.00 84.089 83.921 84.185 84.952 86.086 87.365
520.00 88.578 89.560 90.221 90.528 90.545 90.518
544.00 90.780 91.357 91.913 92.160 92.195 92.308
568.00 92.617 92.958 93.091 92.917 92.570 92.329
592.00 92.366 92.600 92.882 93.187 93.571 93.984
616.00 94.148 93.825 93.318 93.292 93.849 94.355
640.00 94.392 94.236 94.238 94.359 94.333 93.820
664.00 92.551 90.718 88.955 87.705 87.293 88.244
688.00 90.387 92.381 92.993 92.226 91.032 90.273
712.00 89.985 89.726 89.304 88.822 87.782 84.954
736.00 80.002 74.619 71.873 73.120 76.875 81.141
760.00 84.712 87.214 88.738 89.571 90.064 90.535
784.00 91.056 91.395 91.211 90.367 89.088 87.740
808.00 86.372 84.636 82.215 79.260 76.384 74.429
832.00 74.198 76.009 79.251 82.661 85.171 86.329
856.00 86.158 85.046 83.848 83.688 84.912 86.698
880.00 87.974 88.532 88.897 89.439 90.017 90.316
904.00 90.204 89.821 89.478 89.469 89.834 90.324
928.00 90.586 90.399 89.818 89.117 88.563 88.243
952.00 88.073 87.886 87.388 86.267 84.489 82.167
976.00 78.997 74.299 67.876 61.230 57.781 60.128
1000.00 66.055 70.544 71.661 71.372 71.579 71.407
1024.00 69.142 65.044 61.466 60.938 64.050 68.935
1048.00 72.847 74.235 73.100 70.019 66.173 64.076
1072.00 65.764 69.794 73.106 74.351 73.995 72.971
1096.00 72.277 72.263 72.215 71.609 71.290 72.398
1120.00 74.704 76.916 78.119 78.165 77.116 75.139
1144.00 72.657 70.047 67.476 65.120 63.035 60.770
1168.00 57.875 55.099 54.108 55.385 57.688 59.635
1192.00 60.819 61.380 61.205 60.067 57.914 54.936
1216.00 51.863 50.050 50.512 52.956 56.251 59.454
1240.00 62.124 64.226 65.953 67.458 68.717 69.602
1264.00 70.015 69.991 69.860 70.198 71.324 72.922
1288.00 74.300 74.961 74.945 74.780 74.949 75.396
1312.00 75.714 75.752 75.822 76.223 76.838 77.381
1336.00 77.729 77.911 77.950 77.868 77.572 76.493
1360.00 73.724 68.979 63.280 58.478 56.304 57.490
1384.00 60.851 63.625 63.421 60.073 56.500 56.999
1408.00 61.255 65.394 67.932 69.670 71.320 72.406
1432.00 72.234 70.483 67.575 64.970 64.232 65.517
1456.00 67.211 67.811 68.011 69.451 72.335 75.089
1480.00 76.757 78.239 80.722 84.125 87.099 88.870
1504.00 89.755 90.390 91.030 91.407 91.474 91.652
1528.00 92.046 92.140 91.696 91.184 91.123 91.108
1552.00 90.377 88.325 85.069 81.993 80.164 78.831
1576.00 75.999 71.380 68.464 70.805 76.963 82.663
1600.00 85.921 87.333 87.729 87.443 86.831 86.287
1624.00 85.773 85.020 84.061 83.247 82.735 82.112
1648.00 80.527 77.297 72.722 67.659 62.730 59.114
1672.00 58.119 59.596 62.681 66.474 69.549 71.184
1696.00 71.950 72.618 73.263 73.486 73.020 71.796
1720.00 70.135 68.183 65.204 60.340 54.901 53.099
1744.00 57.392 65.413 73.361 79.163 82.836 85.102
1768.00 86.551 87.622 88.570 89.350 89.844 90.135
1792.00 90.458 91.017 91.809 92.646 93.383 94.038
1816.00 94.628 95.047 95.252 95.424 95.723 95.998
1840.00 96.068 96.038 96.109 96.271 96.391 96.424
1864.00 96.409 96.411 96.465 96.511 96.440 96.230
1888.00 95.969 95.762 95.651 95.620 95.626 95.616
1912.00 95.557 95.472 95.446 95.566 95.817 96.078
1936.00 96.258 96.377 96.516 96.693 96.838 96.886
1960.00 96.857 96.818 96.806 96.813 96.836 96.888
1984.00 96.978 97.102 97.238 97.353 97.416 97.423
2008.00 97.384 97.302 97.174 97.043 96.983 97.016
2032.00 97.068 97.057 96.989 96.933 96.928 96.953
2056.00 96.974 96.973 96.939 96.872 96.781 96.692
2080.00 96.614 96.540 96.485 96.487 96.563 96.689
2104.00 96.820 96.921 96.966 96.956 96.930 96.943
2128.00 97.012 97.106 97.179 97.211 97.212 97.207
2152.00 97.216 97.242 97.273 97.291 97.290 97.276
2176.00 97.259 97.250 97.249 97.254 97.262 97.269
2200.00 97.265 97.245 97.216 97.184 97.139 97.070
2224.00 96.984 96.894 96.814 96.759 96.737 96.742
2248.00 96.734 96.732 96.742 96.753 96.758 96.756
2272.00 96.745 96.720 96.680 96.627 96.566 96.495
2296.00 96.415 96.348 96.324 96.302 96.284 96.274
2320.00 96.271 96.273 96.275 96.275 96.270 96.257
2344.00 96.241 96.235 96.247 96.274 96.305 96.331
2368.00 96.346 96.350 96.345 96.333 96.319 96.308
2392.00 96.328 96.328 96.326 96.329 96.332 96.329
2416.00 96.313 96.280 96.220 96.133 96.037 95.957
2440.00 95.905 95.878 95.861 95.836 95.792 95.736
2464.00 95.670 95.584 95.482 95.405 95.408 95.495
2488.00 95.613 95.713 95.793 95.865 95.929 95.969
2512.00 95.974 95.943 95.884 95.795 95.677 95.548
2536.00 95.430 95.327 95.221 95.112 95.021 94.959
2560.00 94.905 94.826 94.719 94.611 94.535 94.503
2584.00 94.480 94.422 94.359 94.370 94.471 94.584
2608.00 94.640 94.641 94.617 94.580 94.530 94.478
2632.00 94.437 94.412 94.389 94.351 94.300 94.248
2656.00 94.202 94.160 94.122 94.086 94.046 94.002
2680.00 93.962 93.936 93.922 93.916 93.911 93.910
2704.00 93.908 93.892 93.862 93.819 93.751 93.638
2728.00 93.501 93.379 93.282 93.189 93.079 92.948
2752.00 92.808 92.683 92.585 92.492 92.366 92.193
2776.00 91.992 91.800 91.626 91.432 91.167 90.813
2800.00 90.415 90.028 89.640 89.190 88.634 87.940
2824.00 87.037 85.808 84.048 81.300 76.968 70.804
2848.00 63.674 58.211 57.455 60.929 65.225 68.316
2872.00 70.195 71.386 71.914 71.383 69.656 67.106
2896.00 64.176 61.062 57.542 53.614 48.777 42.328
2920.00 34.793 29.179 32.050 39.199 45.976 52.026
2944.00 56.932 60.266 62.081 63.230 64.718 66.791
2968.00 68.820 70.131 70.706 71.091 71.811 72.895
2992.00 73.961 74.564 74.535 74.191 74.260 75.302
3016.00 77.236 79.539 81.710 83.457 84.701 85.529
3040.00 86.057 86.273 86.126 85.737 85.387 85.246
3064.00 85.260 85.303 85.301 85.194 84.933 84.570
3088.00 84.256 84.168 84.425 85.019 85.791 86.536
3112.00 87.140 87.578 87.854 87.988 88.037 88.087
3136.00 88.182 88.281 88.312 88.257 88.161 88.059
3160.00 87.937 87.787 87.649 87.567 87.521 87.460
3184.00 87.369 87.268 87.161 87.034 86.895 86.773
3208.00 86.661 86.527 86.359 86.179 86.010 85.838
3232.00 85.651 85.463 85.299 85.150 84.988 84.815
3256.00 84.657 84.519 84.379 84.216 84.032 83.844
3280.00 83.659 83.476 83.289 83.093 82.884 82.644
3304.00 82.342 81.956 81.511 81.080 80.734 80.512
3328.00 80.432 80.480 80.591 80.690 80.742 80.745
3352.00 80.684 80.556 80.424 80.368 80.389 80.409
3376.00 80.376 80.322 80.280 80.231 80.151 80.064
3400.00 80.009 79.981 79.959 79.940 79.935 79.939
3424.00 79.936 79.923 79.912 79.891 79.828 79.751
3448.00 79.736 79.805 79.895 79.978 80.095 80.257
3472.00 80.422 80.562 80.698 80.856 81.048 81.266
3496.00 81.494 81.724 81.989 82.338 82.758 83.175
3520.00 83.543 83.917 84.382 84.925 85.438 85.858
3544.00 86.233 86.671 87.212 87.737 88.083 88.274
3568.00 88.588 89.135 89.673 89.960 90.023 90.088
3592.00 90.314 90.644 90.931 91.083 91.105 91.117
3616.00 91.256 91.484 91.622 91.682 91.912 92.296
3640.00 92.463 92.196 91.805 91.844 92.306 92.767
3664.00 92.899 92.578 92.133 92.219 92.680 92.882
3688.00 92.741 92.699 92.939 93.100 92.954 92.691
3712.00 92.587 92.641 92.697 92.639 92.414 92.113
3736.00 91.956 91.959 91.890 91.759 91.900 92.311
3760.00 92.645 92.753 92.803 92.926 93.013 92.999
3784.00 93.024 93.135 93.131 92.848 92.494 92.488
3808.00 92.717 92.764 92.457 92.147 92.162 92.245
3832.00 92.047 91.722 91.735 92.012 92.046 91.802
3856.00 91.752 91.941 91.968 91.804 91.805 91.972
3880.00 91.985 91.844 91.842 91.923 91.803 91.555
3904.00 91.582 91.905 92.122 92.076 91.978 92.006
3928.00 92.097 92.181 92.269 92.318 92.300 92.294
3952.00 92.353 92.414 92.437 92.456 92.480 92.481
3976.00 92.468 92.465 92.454 92.419 92.377 92.347
4000.00 92.316 