##TITLE= Pfeffer-Wyman Instruments
##JCAMP_DX= 4.24
##DATA TYPE= INFRARED SPECTRUM
##YUNITS= % Transmittance
##XUNITS= 1/CM
##FIRSTX= 400.00000
##LASTX= 4000.000
##XFACTOR= 1.00000000
##DELTAX= 4.0000000
##NPOINTS= 901
##XYDATA= (X++(Y..Y))
400.00 90.708 91.601 92.258 91.927 91.046 90.741
424.00 91.376 92.103 92.362 92.114 91.724 91.379
448.00 90.952 90.298 89.639 89.264 88.947 88.291
472.00 87.299 86.066 84.604 83.365 82.673 81.538
496.00 78.954 76.590 77.597 82.060 86.822 89.546
520.00 90.417 90.447 89.936 88.684 86.585 83.713
544.00 80.637 78.763 79.259 81.835 84.856 86.996
568.00 88.015 88.315 88.144 87.335 85.893 84.564
592.00 84.276 85.115 86.555 88.237 89.933 91.372
616.00 92.390 92.969 93.154 93.220 93.427 93.650
640.00 93.442 92.712 92.061 91.915 91.970 91.735
664.00 90.815 88.864 86.525 85.597 87.080 89.979
688.00 92.499 93.794 94.180 94.180 93.857 92.703
712.00 90.574 88.987 89.817 92.357 94.045 93.929
736.00 93.105 92.045 90.007 87.153 85.530 86.976
760.00 90.446 93.268 94.325 94.247 93.881 93.512
784.00 93.289 93.366 93.611 93.753 93.631 93.131
808.00 92.269 91.129 89.270 86.026 82.341 81.056
832.00 83.518 87.522 90.228 91.155 91.266 90.978
856.00 90.277 89.394 88.239 86.450 84.821 84.842
880.00 86.559 88.338 88.959 88.578 87.822 86.931
904.00 85.874 84.690 83.424 81.978 80.247 78.194
928.00 75.696 73.016 71.549 72.504 74.528 74.997
952.00 73.975 74.548 78.041 82.053 84.400 85.349
976.00 85.763 85.714 85.189 84.390 83.578 83.078
1000.00 82.499 80.672 77.614 75.574 76.048 76.735
1024.00 74.291 69.182 65.466 66.095 70.091 74.729
1048.00 78.435 80.908 82.237 82.497 81.508 79.091
1072.00 75.838 72.937 70.829 68.561 65.194 60.771
1096.00 56.524 55.186 59.269 67.628 75.992 81.323
1120.00 83.554 84.010 83.721 83.124 82.232 80.812
1144.00 78.802 76.569 74.676 73.380 72.388 71.076
1168.00 68.996 66.330 63.802 61.861 60.239 58.487
1192.00 56.367 53.664 50.686 49.279 51.569 56.881
1216.00 62.301 66.034 68.265 69.881 71.445 73.057
1240.00 74.545 75.701 76.464 76.864 76.839 76.352
1264.00 75.610 74.792 73.644 71.805 69.463 67.273
1288.00 65.567 64.211 63.119 62.496 62.791 64.452
1312.00 67.168 69.886 72.095 74.232 76.853 79.669
1336.00 81.927 83.383 84.403 85.284 85.914 86.019
1360.00 85.541 84.652 83.560 82.539 81.904 81.695
1384.00 81.360 79.902 76.693 73.006 71.212 72.021
1408.00 72.999 72.090 69.825 67.613 65.792 64.207
1432.00 63.625 64.960 67.816 70.665 72.342 72.434
1456.00 71.475 70.974 71.474 72.147 72.977 74.412
1480.00 75.278 74.165 71.767 71.145 73.886 77.873
1504.00 80.734 82.353 83.512 83.759 83.232 83.398
1528.00 84.417 84.508 82.960 81.300 81.661 82.722
1552.00 82.303 80.641 79.684 79.986 79.956 79.105
1576.00 78.359 78.077 77.607 76.556 74.906 72.507
1600.00 68.813 63.203 55.938 49.927 50.883 56.062
1624.00 59.886 61.173 60.392 58.987 58.101 56.675
1648.00 54.489 54.989 58.613 60.692 60.599 59.285
1672.00 57.487 55.202 52.188 49.159 47.475 47.585
1696.00 49.222 52.529 57.090 61.317 64.688 68.035
1720.00 71.777 74.635 75.712 75.428 75.072 75.742
1744.00 77.611 80.078 82.666 84.952 86.581 87.529
1768.00 88.050 88.615 89.518 90.409 90.769 90.594
1792.00 90.346 90.443 90.848 91.216 91.378 91.510
1816.00 91.708 91.673 91.221 90.870 91.155 91.633
1840.00 91.740 91.725 92.087 92.681 93.018 92.892
1864.00 92.473 92.173 92.283 92.611 92.752 92.587
1888.00 92.323 92.134 91.939 91.663 91.462 91.490
1912.00 91.608 91.612 91.623 91.921 92.432 92.773
1936.00 92.761 92.591 92.548 92.677 92.824 92.867
1960.00 92.811 92.725 92.674 92.687 92.743 92.759
1984.00 92.661 92.496 92.393 92.404 92.462 92.490
2008.00 92.472 92.418 92.351 92.298 92.277 92.267
2032.00 92.225 92.134 92.020 91.930 91.893 91.883
2056.00 91.853 91.788 91.718 91.674 91.654 91.639
2080.00 91.615 91.580 91.531 91.450 91.319 91.170
2104.00 91.075 91.066 91.105 91.137 91.133 91.089
2128.00 91.005 90.895 90.786 90.711 90.680 90.671
2152.00 90.649 90.584 90.463 90.300 90.126 89.992
2176.00 89.947 90.009 90.139 90.269 90.349 90.368
2200.00 90.338 90.284 90.236 90.203 90.171 90.126
2224.00 90.078 90.029 89.960 89.866 89.767 89.688
2248.00 89.620 89.546 89.449 89.330 89.195 89.059
2272.00 88.917 88.730 88.507 88.330 88.260 88.243
2296.00 88.188 88.075 87.939 87.785 87.616 87.452
2320.00 87.297 87.141 86.993 86.866 86.754 86.675
2344.00 86.650 86.617 86.480 86.237 86.014 85.917
2368.00 85.915 85.966 86.037 86.070 86.022 85.903
2392.00 85.750 85.590 85.463 85.399 85.397 85.421
2416.00 85.424 85.377 85.280 85.149 84.996 84.828
2440.00 84.645 84.440 84.212 83.969 83.716 83.445
2464.00 83.151 82.843 82.538 82.253 81.979 81.740
2488.00 81.555 81.464 81.486 81.592 81.724 81.812
2512.00 81.816 81.726 81.548 81.298 81.014 80.749
2536.00 80.532 80.342 80.130 79.860 79.520 79.118
2560.00 78.675 78.212 77.740 77.301 76.984 76.876
2584.00 76.988 77.270 77.661 78.086 78.475 78.785
2608.00 79.019 79.204 79.357 79.494 79.648 79.842
2632.00 80.054 80.224 80.286 80.224 80.074 79.888
2656.00 79.693 79.487 79.269 79.051 78.860 78.719
2680.00 78.641 78.605 78.570 78.511 78.440 78.406
2704.00 78.459 78.623 78.871 79.126 79.307 79.389
2728.00 79.390 79.328 79.215 79.056 78.851 78.603
2752.00 78.343 78.120 77.958 77.827 77.686 77.524
2776.00 77.345 77.139 76.888 76.600 76.308 76.022
2800.00 75.737 75.447 75.141 74.794 74.394 73.946
2824.00 73.457 72.937 72.377 71.706 70.795 69.551
2848.00 68.063 66.847 66.669 67.431 68.303 68.878
2872.00 69.208 69.402 69.468 69.350 69.033 68.550
2896.00 67.930 67.205 66.371 65.439 64.230 62.444
2920.00 60.079 58.105 59.470 62.280 64.709 66.737
2944.00 68.271 69.229 69.677 69.852 69.993 70.190
2968.00 70.375 70.462 70.438 70.377 70.383 70.497
2992.00 70.669 70.821 70.913 70.940 70.911 70.876
3016.00 70.977 71.353 71.922 72.425 72.738 72.925
3040.00 73.057 73.150 73.254 73.410 73.587 73.741
3064.00 73.896 74.065 74.163 74.106 73.953 73.822
3088.00 73.700 73.501 73.321 73.418 73.853 74.376
3112.00 74.753 75.006 75.244 75.475 75.672 75.855
3136.00 76.047 76.242 76.431 76.607 76.769 76.902
3160.00 77.005 77.065 77.099 77.142 77.195 77.224
3184.00 77.222 77.210 77.189 77.137 77.058 76.988
3208.00 76.947 76.912 76.851 76.769 76.704 76.668
3232.00 76.618 76.526 76.442 76.420 76.427 76.417
3256.00 76.416 76.454 76.490 76.457 76.366 76.283
3280.00 76.228 76.168 76.069 75.945 75.820 75.672
3304.00 75.445 75.126 74.776 74.442 74.104 73.728
3328.00 73.317 72.882 72.424 71.925 71.343 70.623
3352.00 69.764 68.782 67.667 66.454 65.248 64.062
3376.00 62.760 61.253 59.591 57.824 55.960 54.074
3400.00 52.353 50.943 49.618 47.722 44.979 42.461
3424.00 41.391 41.072 40.711 40.621 41.247 43.500
3448.00 47.232 50.712 52.983 54.404 55.707 57.192
3472.00 58.634 59.775 60.696 61.669 62.790 63.885
3496.00 64.769 65.486 66.325 67.509 68.819 69.781
3520.00 70.257 70.699 71.604 72.825 73.802 74.252
3544.00 74.445 75.011 76.113 77.036 77.139 76.873
3568.00 77.579 79.221 80.511 80.908 80.856 81.082
3592.00 81.782 82.628 83.345 83.794 83.899 83.910
3616.00 84.263 84.908 85.352 85.633 86.380 87.399
3640.00 87.749 87.055 86.265 86.739 88.044 88.941
3664.00 88.867 87.810 86.689 86.961 87.940 88.238
3688.00 87.908 87.935 88.510 88.756 88.298 87.660
3712.00 87.449 87.552 87.526 87.162 86.446 85.623
3736.00 85.181 85.138 84.963 84.704 85.131 86.136
3760.00 86.871 87.097 87.237 87.497 87.597 87.498
3784.00 87.567 87.753 87.502 86.550 85.536 85.454
3808.00 86.003 86.018 85.210 84.526 84.746 85.087
3832.00 84.592 83.790 83.853 84.427 84.350 83.743
3856.00 83.683 84.033 83.924 83.532 83.666 84.070
3880.00 84.027 83.726 83.848 84.082 83.750 83.163
3904.00 83.343 84.194 84.655 84.439 84.062 83.934
3928.00 83.974 84.074 84.184 84.125 83.895 83.787
3952.00 83.901 84.018 84.010 83.938 83.830 83.704
3976.00 83.642 83.651 83.619 83.502 83.392 83.357
4000.00 83.341 