##TITLE= Pfeffer-Wyman Instruments
##JCAMP_DX= 4.24
##DATA TYPE= INFRARED SPECTRUM
##YUNITS= % Transmittance
##XUNITS= 1/CM
##FIRSTX= 400.00000
##LASTX= 4000.000
##XFACTOR= 1.00000000
##DELTAX= 4.0000000
##NPOINTS= 901
##XYDATA= (X++(Y..Y))
400.00 89.764 90.636 91.283 91.010 90.232 89.973
424.00 90.563 91.229 91.492 91.300 90.990 90.729
448.00 90.399 89.860 89.302 88.975 88.667 88.009
472.00 87.001 85.723 84.199 82.895 82.147 81.004
496.00 78.497 76.245 77.310 81.756 86.465 89.143
520.00 89.974 89.953 89.381 88.065 85.913 83.045
544.00 80.064 78.325 78.919 81.520 84.544 86.734
568.00 87.872 88.322 88.294 87.631 86.362 85.181
592.00 84.939 85.714 87.029 88.561 90.101 91.410
616.00 92.344 92.889 93.074 93.133 93.311 93.523
640.00 93.359 92.714 92.131 92.002 92.043 91.817
664.00 90.964 89.120 86.879 86.020 87.522 90.340
688.00 92.691 93.824 94.130 94.130 93.840 92.693
712.00 90.506 88.819 89.562 92.080 93.831 93.832
736.00 93.123 92.073 89.824 86.589 84.630 85.906
760.00 89.374 92.304 93.493 93.525 93.278 93.054
784.00 92.959 93.112 93.394 93.557 93.436 92.931
808.00 92.095 91.039 89.317 86.242 82.727 81.580
832.00 84.111 88.079 90.647 91.381 91.277 90.748
856.00 89.804 88.745 87.542 85.819 84.295 84.413
880.00 86.198 88.004 88.626 88.251 87.518 86.636
904.00 85.541 84.280 82.952 81.511 79.863 77.930
928.00 75.532 72.890 71.394 72.287 74.284 74.815
952.00 73.911 74.586 78.141 82.201 84.600 85.591
976.00 86.020 85.946 85.370 84.556 83.789 83.311
1000.00 82.688 80.785 77.614 75.389 75.620 76.154
1024.00 73.835 69.089 65.718 66.483 70.421 74.907
1048.00 78.432 80.742 82.003 82.378 81.672 79.545
1072.00 76.419 73.533 71.452 69.248 65.935 61.543
1096.00 57.334 55.998 59.930 67.930 75.825 80.769
1120.00 82.812 83.233 82.936 82.264 81.227 79.654
1144.00 77.537 75.250 73.311 71.955 70.927 69.675
1168.00 67.759 65.276 62.870 61.024 59.560 58.037
1192.00 56.148 53.641 50.819 49.532 51.919 57.325
1216.00 62.828 66.577 68.701 70.094 71.375 72.683
1240.00 73.877 74.771 75.322 75.572 75.455 74.924
1264.00 74.171 73.368 72.264 70.500 68.258 66.174
1288.00 64.554 63.241 62.141 61.473 61.695 63.254
1312.00 65.840 68.415 70.476 72.476 75.004 77.808
1336.00 80.145 81.736 82.897 83.914 84.680 84.888
1360.00 84.405 83.381 82.145 81.134 80.686 80.689
1384.00 80.491 79.158 76.188 72.854 71.356 72.162
1408.00 72.910 71.835 69.539 67.334 65.506 63.917
1432.00 63.319 64.594 67.362 70.154 71.832 71.986
1456.00 71.103 70.594 71.035 71.761 72.744 74.275
1480.00 75.211 74.250 72.022 71.465 74.191 78.198
1504.00 81.162 82.875 84.056 84.349 83.916 84.114
1528.00 85.085 85.180 83.751 82.217 82.554 83.542
1552.00 83.167 81.669 80.874 81.259 81.290 80.527
1576.00 79.905 79.781 79.423 78.331 76.566 74.152
1600.00 70.629 65.359 58.501 52.756 53.602 58.415
1624.00 61.912 63.022 62.196 60.787 59.878 58.481
1648.00 56.373 56.777 60.105 62.004 61.858 60.484
1672.00 58.518 55.983 52.699 49.387 47.433 47.323
1696.00 48.790 51.903 56.183 60.133 63.299 66.433
1720.00 69.852 72.380 73.210 72.671 71.980 72.508
1744.00 74.708 77.795 80.961 83.656 85.568 86.736
1768.00 87.435 88.120 89.064 89.946 90.307 90.173
1792.00 89.991 90.151 90.607 91.021 91.229 91.395
1816.00 91.616 91.616 91.227 90.925 91.211 91.683
1840.00 91.819 91.842 92.208 92.783 93.109 92.995
1864.00 92.602 92.313 92.401 92.694 92.820 92.670
1888.00 92.433 92.262 92.076 91.807 91.620 91.664
1912.00 91.800 91.826 91.852 92.146 92.636 92.960
1936.00 92.952 92.795 92.756 92.876 93.013 93.058
1960.00 93.011 92.938 92.895 92.906 92.958 92.974
1984.00 92.881 92.720 92.612 92.608 92.649 92.665
2008.00 92.640 92.586 92.522 92.475 92.456 92.442
2032.00 92.395 92.300 92.183 92.093 92.058 92.057
2056.00 92.041 91.990 91.929 91.886 91.864 91.847
2080.00 91.826 91.798 91.759 91.687 91.561 91.414
2104.00 91.318 91.309 91.350 91.387 91.390 91.351
2128.00 91.271 91.162 91.053 90.976 90.943 90.933
2152.00 90.910 90.842 90.720 90.555 90.380 90.242
2176.00 90.193 90.250 90.376 90.502 90.580 90.597
2200.00 90.567 90.512 90.462 90.427 90.392 90.344
2224.00 90.293 90.238 90.164 90.067 89.967 89.886
2248.00 89.819 89.749 89.659 89.547 89.420 89.289
2272.00 89.150 88.965 88.741 88.563 88.489 88.467
2296.00 88.407 88.290 88.152 87.997 87.829 87.665
2320.00 87.513 87.361 87.216 87.091 86.981 86.901
2344.00 86.875 86.843 86.711 86.476 86.263 86.172
2368.00 86.175 86.227 86.298 86.329 86.281 86.162
2392.00 86.010 85.851 85.726 85.663 85.662 85.687
2416.00 85.689 85.641 85.544 85.414 85.264 85.099
2440.00 84.918 84.714 84.483 84.236 83.976 83.700
2464.00 83.403 83.095 82.793 82.510 82.236 81.994
2488.00 81.806 81.713 81.732 81.834 81.962 82.048
2512.00 82.051 81.961 81.783 81.533 81.251 80.989
2536.00 80.774 80.584 80.373 80.102 79.762 79.360
2560.00 78.916 78.452 77.979 77.536 77.215 77.100
2584.00 77.206 77.481 77.866 78.281 78.657 78.953
2608.00 79.175 79.346 79.485 79.611 79.755 79.940
2632.00 80.143 80.305 80.362 80.299 80.153 79.971
2656.00 79.779 79.575 79.358 79.141 78.950 78.809
2680.00 78.729 78.691 78.655 78.596 78.528 78.495
2704.00 78.547 78.707 78.947 79.191 79.362 79.435
2728.00 79.428 79.362 79.247 79.087 78.881 78.634
2752.00 78.375 78.152 77.985 77.849 77.704 77.538
2776.00 77.355 77.144 76.887 76.594 76.297 76.004
2800.00 75.707 75.399 75.067 74.690 74.256 73.772
2824.00 73.239 72.662 72.022 71.223 70.108 68.562
2848.00 66.703 65.186 64.960 65.906 66.987 67.691
2872.00 68.080 68.314 68.403 68.262 67.851 67.213
2896.00 66.405 65.477 64.418 63.249 61.765 59.604
2920.00 56.744 54.342 55.888 59.156 61.983 64.357
2944.00 66.181 67.343 67.897 68.117 68.306 68.573
2968.00 68.813 68.901 68.837 68.753 68.805 69.037
2992.00 69.379 69.732 70.038 70.261 70.363 70.373
3016.00 70.483 70.903 71.581 72.222 72.658 72.934
3040.00 73.128 73.268 73.412 73.605 73.810 73.981
3064.00 74.141 74.308 74.400 74.337 74.171 74.015
3088.00 73.858 73.622 73.405 73.465 73.867 74.376
3112.00 74.758 75.023 75.269 75.503 75.697 75.872
3136.00 76.050 76.229 76.403 76.562 76.708 76.827
3160.00 76.916 76.964 76.985 77.011 77.045 77.056
3184.00 77.039 77.012 76.976 76.910 76.821 76.741
3208.00 76.687 76.638 76.566 76.473 76.397 76.348
3232.00 76.286 76.185 76.092 76.056 76.047 76.023
3256.00 76.007 76.029 76.049 76.004 75.905 75.811
3280.00 75.744 75.672 75.564 75.433 75.301 75.152
3304.00 74.933 74.635 74.310 73.998 73.684 73.336
3328.00 72.956 72.554 72.130 71.668 71.130 70.470
3352.00 69.685 68.788 67.769 66.664 65.564 64.480
3376.00 63.287 61.906 60.383 58.761 57.046 55.308
3400.00 53.716 52.409 51.178 49.412 46.847 44.479
3424.00 43.469 43.169 42.829 42.745 43.336 45.458
3448.00 48.953 52.189 54.292 55.608 56.816 58.191
3472.00 59.526 60.585 61.440 62.340 63.376 64.397
3496.00 65.240 65.941 66.755 67.884 69.131 70.064
3520.00 70.557 71.022 71.913 73.093 74.052 74.530
3544.00 74.772 75.352 76.422 77.326 77.477 77.287
3568.00 77.986 79.543 80.774 81.178 81.162 81.398
3592.00 82.070 82.872 83.552 83.981 84.092 84.119
3616.00 84.463 85.070 85.487 85.755 86.454 87.403
3640.00 87.730 87.092 86.367 86.814 88.030 88.865
3664.00 88.800 87.825 86.798 87.060 87.973 88.250
3688.00 87.947 87.979 88.520 88.753 88.329 87.740
3712.00 87.546 87.644 87.620 87.281 86.616 85.854
3736.00 85.447 85.407 85.241 84.999 85.394 86.324
3760.00 87.000 87.203 87.327 87.565 87.656 87.563
3784.00 87.626 87.797 87.562 86.679 85.743 85.675
3808.00 86.190 86.207 85.463 84.835 85.040 85.348
3832.00 84.882 84.136 84.196 84.728 84.653 84.091
3856.00 84.038 84.365 84.264 83.900 84.023 84.396
3880.00 84.353 84.073 84.187 84.404 84.096 83.551
3904.00 83.719 84.507 84.934 84.734 84.387 84.272
3928.00 84.310 84.402 84.502 84.444 84.229 84.126
3952.00 84.228 84.332 84.321 84.251 84.150 84.031
3976.00 83.973 83.981 83.952 83.847 83.746 83.711
4000.00 83.690 