##TITLE= Pfeffer-Wyman Instruments
##JCAMP_DX= 4.24
##DATA TYPE= INFRARED SPECTRUM
##YUNITS= % Transmittance
##XUNITS= 1/CM
##FIRSTX= 400.00000
##LASTX= 4000.000
##XFACTOR= 1.00000000
##DELTAX= 4.0000000
##NPOINTS= 901
##XYDATA= (X++(Y..Y))
400.00 91.694 92.451 92.982 92.635 91.787 91.436
424.00 91.926 92.518 92.769 92.561 92.202 91.867
448.00 91.452 90.827 90.182 89.769 89.383 88.661
472.00 87.583 86.199 84.561 83.222 82.507 81.279
496.00 78.450 75.867 76.947 81.802 87.034 90.070
520.00 91.055 91.068 90.458 89.048 86.743 83.619
544.00 80.274 78.223 78.764 81.614 85.036 87.576
568.00 88.922 89.463 89.465 88.806 87.533 86.350
592.00 86.101 86.846 88.106 89.574 91.069 92.360
616.00 93.279 93.794 93.936 93.946 94.089 94.293
640.00 94.136 93.492 92.899 92.735 92.711 92.430
664.00 91.502 89.437 86.863 85.831 87.455 90.507
688.00 92.961 94.048 94.274 94.224 93.880 92.558
712.00 90.026 88.021 88.736 91.504 93.520 93.667
736.00 93.134 92.380 90.405 87.283 85.357 86.750
760.00 90.379 93.350 94.432 94.311 93.914 93.505
784.00 93.180 93.117 93.265 93.400 93.329 92.877
808.00 92.037 90.906 89.000 85.589 81.697 80.391
832.00 83.095 87.393 90.190 90.997 90.925 90.491
856.00 89.722 88.857 87.724 85.843 84.049 84.004
880.00 85.817 87.741 88.432 88.029 87.212 86.250
904.00 85.115 83.845 82.472 80.872 78.941 76.670
928.00 73.958 71.098 69.579 70.676 72.923 73.485
952.00 72.428 73.098 76.956 81.449 84.192 85.444
976.00 86.157 86.452 86.350 85.989 85.396 84.728
1000.00 83.759 81.538 78.177 76.058 76.771 77.877
1024.00 75.775 70.868 67.284 67.970 71.915 76.387
1048.00 79.843 82.042 83.159 83.342 82.390 79.974
1072.00 76.578 73.548 71.502 69.426 66.214 61.819
1096.00 57.490 56.031 60.025 68.355 76.668 81.873
1120.00 84.045 84.618 84.536 84.090 83.249 81.815
1144.00 79.761 77.448 75.384 73.812 72.546 71.109
1168.00 69.069 66.486 64.004 62.124 60.631 59.000
1192.00 56.869 53.980 50.735 49.220 51.787 57.748
1216.00 63.869 68.020 70.285 71.669 72.894 74.156
1240.00 75.319 76.182 76.702 76.929 76.771 76.146
1264.00 75.255 74.289 72.961 70.858 68.192 65.692
1288.00 63.729 62.164 60.915 60.225 60.587 62.479
1312.00 65.548 68.607 71.025 73.284 76.049 79.044
1336.00 81.420 82.859 83.778 84.619 85.357 85.655
1360.00 85.302 84.396 83.253 82.311 81.897 81.897
1384.00 81.670 80.280 77.206 73.744 72.157 72.873
1408.00 73.407 71.964 69.226 66.605 64.428 62.600
1432.00 61.935 63.347 66.405 69.522 71.441 71.726
1456.00 70.916 70.441 70.918 71.761 72.904 74.454
1480.00 75.175 73.812 71.141 70.330 73.133 77.479
1504.00 80.856 82.858 84.136 84.461 84.063 84.258
1528.00 85.165 85.208 83.776 82.246 82.512 83.409
1552.00 83.010 81.545 80.766 81.123 81.141 80.400
1576.00 79.802 79.677 79.310 78.220 76.493 74.183
1600.00 70.865 65.913 59.429 53.930 54.614 59.032
1624.00 62.229 63.176 62.268 60.804 59.860 58.526
1648.00 56.514 56.757 59.661 61.254 60.948 59.440
1672.00 57.308 54.605 51.167 47.710 45.682 45.654
1696.00 47.398 50.914 55.599 59.931 63.502 67.032
1720.00 70.698 73.264 73.918 72.919 71.560 71.679
1744.00 74.067 77.607 81.087 83.884 85.803 86.966
1768.00 87.674 88.381 89.347 90.240 90.606 90.475
1792.00 90.278 90.378 90.730 91.030 91.137 91.223
1816.00 91.380 91.337 90.919 90.586 90.831 91.277
1840.00 91.408 91.432 91.786 92.339 92.652 92.540
1864.00 92.156 91.872 91.952 92.233 92.355 92.206
1888.00 91.966 91.773 91.542 91.224 91.011 91.063
1912.00 91.217 91.251 91.281 91.584 92.084 92.419
1936.00 92.422 92.274 92.231 92.338 92.462 92.500
1960.00 92.452 92.376 92.327 92.329 92.374 92.388
1984.00 92.299 92.144 92.037 92.033 92.078 92.104
2008.00 92.093 92.050 91.990 91.936 91.907 91.887
2032.00 91.843 91.756 91.648 91.563 91.526 91.515
2056.00 91.487 91.430 91.367 91.324 91.304 91.289
2080.00 91.268 91.234 91.182 91.089 90.936 90.761
2104.00 90.647 90.632 90.674 90.708 90.704 90.652
2128.00 90.558 90.434 90.311 90.224 90.186 90.174
2152.00 90.145 90.070 89.937 89.760 89.572 89.428
2176.00 89.381 89.453 89.599 89.743 89.831 89.852
2200.00 89.822 89.765 89.714 89.680 89.646 89.603
2224.00 89.555 89.502 89.427 89.326 89.221 89.135
2248.00 89.061 88.981 88.879 88.752 88.609 88.462
2272.00 88.304 88.096 87.847 87.649 87.566 87.541
2296.00 87.474 87.346 87.197 87.027 86.842 86.661
2320.00 86.489 86.316 86.152 86.011 85.886 85.799
2344.00 85.770 85.733 85.580 85.310 85.061 84.951
2368.00 84.945 84.998 85.075 85.110 85.057 84.927
2392.00 84.763 84.589 84.450 84.379 84.376 84.401
2416.00 84.403 84.352 84.248 84.109 83.946 83.767
2440.00 83.569 83.347 83.098 82.835 82.560 82.266
2464.00 81.947 81.612 81.281 80.970 80.671 80.405
2488.00 80.197 80.093 80.110 80.218 80.351 80.439
2512.00 80.439 80.337 80.139 79.865 79.560 79.279
2536.00 79.050 78.849 78.623 78.333 77.967 77.536
2560.00 77.061 76.567 76.064 75.597 75.259 75.143
2584.00 75.262 75.566 75.989 76.444 76.857 77.183
2608.00 77.429 77.622 77.783 77.932 78.103 78.314
2632.00 78.541 78.717 78.779 78.708 78.544 78.338
2656.00 78.119 77.886 77.641 77.399 77.188 77.033
2680.00 76.948 76.912 76.882 76.829 76.766 76.743
2704.00 76.811 76.995 77.264 77.537 77.733 77.820
2728.00 77.820 77.757 77.640 77.473 77.257 76.998
2752.00 76.730 76.498 76.323 76.178 76.024 75.848
2776.00 75.650 75.418 75.134 74.811 74.485 74.163
2800.00 73.836 73.496 73.128 72.708 72.224 71.678
2824.00 71.067 70.393 69.626 68.639 67.233 65.267
2848.00 62.908 61.006 60.765 62.038 63.522 64.549
2872.00 65.165 65.536 65.673 65.494 64.983 64.218
2896.00 63.277 62.208 60.954 59.502 57.590 54.814
2920.00 51.232 48.310 50.228 54.315 57.884 60.853
2944.00 63.088 64.499 65.206 65.582 65.996 66.557
2968.00 67.109 67.482 67.655 67.753 67.928 68.225
2992.00 68.581 68.914 69.189 69.384 69.476 69.497
3016.00 69.604 69.967 70.522 71.014 71.320 71.507
3040.00 71.649 71.766 71.907 72.112 72.342 72.541
3064.00 72.730 72.925 73.049 73.015 72.880 72.769
3088.00 72.667 72.478 72.295 72.390 72.840 73.387
3112.00 73.779 74.043 74.301 74.561 74.788 74.998
3136.00 75.219 75.444 75.665 75.874 76.070 76.241
3160.00 76.384 76.486 76.560 76.641 76.730 76.797
3184.00 76.836 76.866 76.887 76.881 76.854 76.837
3208.00 76.846 76.859 76.849 76.820 76.805 76.815
3232.00 76.813 76.775 76.744 76.768 76.817 76.851
3256.00 76.893 76.972 77.049 77.060 77.015 76.971
3280.00 76.948 76.920 76.856 76.770 76.681 76.575
3304.00 76.402 76.150 75.869 75.602 75.336 75.041
3328.00 74.717 74.378 74.017 73.613 73.131 72.529
3352.00 71.802 70.962 70.007 68.980 67.964 66.957
3376.00 65.834 64.523 63.075 61.532 59.894 58.227
3400.00 56.697 55.438 54.247 52.532 50.029 47.709
3424.00 46.719 46.427 46.093 46.006 46.578 48.649
3448.00 52.051 55.183 57.206 58.467 59.623 60.936
3472.00 62.203 63.196 63.984 64.802 65.743 66.680
3496.00 67.470 68.131 68.885 69.922 71.061 71.891
3520.00 72.294 72.664 73.436 74.483 75.315 75.684
3544.00 75.826 76.288 77.212 77.978 78.025 77.749
3568.00 78.321 79.717 80.812 81.122 81.033 81.189
3592.00 81.771 82.487 83.083 83.435 83.483 83.458
3616.00 83.740 84.275 84.630 84.849 85.491 86.381
3640.00 86.671 86.029 85.308 85.714 86.864 87.652
3664.00 87.571 86.617 85.621 85.869 86.739 86.994
3688.00 86.690 86.716 87.235 87.455 87.040 86.467
3712.00 86.279 86.374 86.354 86.028 85.386 84.656
3736.00 84.269 84.230 84.064 83.828 84.210 85.103
3760.00 85.750 85.939 86.053 86.278 86.366 86.279
3784.00 86.342 86.508 86.283 85.436 84.542 84.485
3808.00 84.983 85.005 84.298 83.705 83.902 84.186
3832.00 83.729 83.015 83.080 83.594 83.522 82.985
3856.00 82.942 83.264 83.172 82.823 82.939 83.293
3880.00 83.248 82.978 83.088 83.296 83.003 82.485
3904.00 82.650 83.411 83.825 83.641 83.317 83.215
3928.00 83.256 83.343 83.436 83.380 83.176 83.079
3952.00 83.175 83.270 83.255 83.183 83.082 82.965
3976.00 82.908 82.916 82.895 82.806 82.721 82.695
4000.00 82.682 