##TITLE= Pfeffer-Wyman Instruments
##JCAMP_DX= 4.24
##DATA TYPE= INFRARED SPECTRUM
##YUNITS= % Transmittance
##XUNITS= 1/CM
##FIRSTX= 400.00000
##LASTX= 4000.000
##XFACTOR= 1.00000000
##DELTAX= 4.0000000
##NPOINTS= 901
##XYDATA= (X++(Y..Y))
400.00 78.680 78.809 78.836 78.630 77.817 76.386
424.00 75.481 76.287 78.347 79.977 80.306 79.675
448.00 78.655 77.494 76.336 75.419 74.910 74.789
472.00 74.903 75.004 74.903 74.600 74.100 73.220
496.00 71.835 70.342 69.604 70.171 71.843 73.885
520.00 75.467 76.177 76.247 76.202 76.205 75.915
544.00 75.086 73.806 71.984 69.703 67.863 67.278
568.00 67.395 66.724 63.988 58.807 52.571 48.240
592.00 47.677 49.928 53.125 57.166 62.986 70.032
616.00 76.118 79.848 81.778 83.051 84.106 84.825
640.00 85.195 85.416 85.644 85.876 85.802 84.814
664.00 82.378 78.535 74.292 71.545 72.061 75.976
688.00 81.283 85.466 87.534 88.033 87.845 87.438
712.00 86.855 86.082 84.841 82.110 77.617 73.870
736.00 73.783 76.609 79.633 81.928 84.139 86.583
760.00 88.592 89.800 90.118 89.329 88.033 87.589
784.00 88.433 89.651 90.374 90.503 90.197 89.418
808.00 87.781 84.701 80.249 75.883 73.566 74.172
832.00 77.060 80.855 84.416 87.206 89.117 90.144
856.00 90.297 89.724 88.833 88.231 88.290 88.836
880.00 89.345 89.442 89.205 88.879 88.411 87.549
904.00 86.467 85.869 86.121 86.740 87.039 86.845
928.00 86.326 85.616 84.934 84.523 84.230 83.686
952.00 82.891 82.301 82.086 81.774 80.987 79.785
976.00 78.197 75.897 72.648 68.986 66.582 66.914
1000.00 68.741 69.424 68.169 66.048 63.404 58.683
1024.00 51.208 43.389 38.925 40.251 47.560 58.225
1048.00 67.354 70.878 68.103 61.614 55.814 54.182
1072.00 56.368 58.521 57.689 54.699 51.312 47.561
1096.00 43.233 39.617 38.950 42.652 50.207 58.978
1120.00 65.601 68.453 68.611 67.975 67.072 65.054
1144.00 61.269 56.229 51.382 48.429 48.244 49.882
1168.00 51.166 50.870 49.613 48.234 46.737 44.860
1192.00 42.596 40.338 38.748 38.388 39.224 40.462
1216.00 41.268 41.706 42.647 44.947 48.886 53.984
1240.00 59.259 63.946 67.908 71.091 73.028 73.561
1264.00 73.671 74.558 76.283 78.168 79.919 81.557
1288.00 82.866 83.553 83.676 83.572 83.308 82.288
1312.00 79.947 77.304 76.778 79.462 83.689 87.080
1336.00 88.878 89.651 89.902 89.769 89.291 88.407
1360.00 86.976 84.918 82.269 79.411 77.307 76.805
1384.00 77.352 77.227 74.769 69.424 63.343 61.052
1408.00 64.466 70.789 76.188 79.062 80.106 80.197
1432.00 79.642 78.352 76.186 73.744 72.340 72.356
1456.00 72.182 69.903 65.903 62.310 60.827 62.254
1480.00 66.676 73.029 79.405 84.449 87.848 89.908
1504.00 91.150 92.007 92.624 92.833 92.676 92.565
1528.00 92.554 92.116 91.087 90.096 89.651 89.302
1552.00 88.269 86.295 83.759 81.364 79.392 77.414
1576.00 74.636 71.003 68.266 68.283 69.971 70.344
1600.00 67.760 62.692 56.586 51.495 49.876 52.417
1624.00 55.854 55.895 51.677 46.660 45.320 49.051
1648.00 55.495 61.354 65.089 66.889 67.288 67.178
1672.00 67.691 69.080 70.946 72.908 74.521 75.644
1696.00 76.698 78.289 80.412 82.539 84.325 85.903
1720.00 87.489 88.863 89.683 90.165 90.828 91.719
1744.00 92.521 93.154 93.769 94.381 94.841 95.065
1768.00 95.141 95.247 95.473 95.710 95.813 95.799
1792.00 95.817 95.958 96.179 96.380 96.502 96.592
1816.00 96.708 96.799 96.803 96.803 96.901 96.996
1840.00 96.958 96.876 96.886 96.952 96.957 96.866
1864.00 96.727 96.616 96.579 96.579 96.507 96.281
1888.00 95.950 95.663 95.529 95.524 95.536 95.482
1912.00 95.356 95.221 95.184 95.303 95.509 95.675
1936.00 95.752 95.786 95.830 95.885 95.916 95.891
1960.00 95.822 95.746 95.681 95.623 95.573 95.533
1984.00 95.505 95.490 95.488 95.486 95.467 95.425
2008.00 95.369 95.298 95.201 95.081 94.974 94.907
2032.00 94.859 94.795 94.710 94.625 94.551 94.472
2056.00 94.378 94.273 94.163 94.051 93.954 93.890
2080.00 93.853 93.807 93.737 93.660 93.603 93.573
2104.00 93.563 93.557 93.538 93.500 93.456 93.428
2128.00 93.425 93.435 93.437 93.425 93.406 93.391
2152.00 93.383 93.374 93.358 93.332 93.304 93.284
2176.00 93.278 93.288 93.307 93.322 93.326 93.316
2200.00 93.296 93.263 93.212 93.139 93.050 92.955
2224.00 92.860 92.765 92.672 92.602 92.576 92.586
2248.00 92.594 92.599 92.600 92.591 92.569 92.540
2272.00 92.516 92.496 92.475 92.456 92.438 92.408
2296.00 92.356 92.302 92.243 92.182 92.119 92.058
2320.00 92.001 91.944 91.889 91.836 91.785 91.738
2344.00 91.698 91.659 91.608 91.542 91.480 91.438
2368.00 91.409 91.386 91.364 91.335 91.293 91.238
2392.00 91.177 91.120 91.060 91.006 90.958 90.913
2416.00 90.867 90.812 90.742 90.659 90.568 90.480
2440.00 90.404 90.340 90.276 90.205 90.121 90.018
2464.00 89.881 89.703 89.505 89.343 89.256 89.235
2488.00 89.237 89.235 89.235 89.259 89.312 89.372
2512.00 89.404 89.392 89.343 89.268 89.173 89.066
2536.00 88.958 88.850 88.732 88.600 88.459 88.319
2560.00 88.175 88.015 87.845 87.688 87.577 87.529
2584.00 87.520 87.511 87.493 87.492 87.511 87.520
2608.00 87.504 87.495 87.533 87.610 87.700 87.790
2632.00 87.873 87.934 87.953 87.921 87.852 87.765
2656.00 87.674 87.585 87.504 87.432 87.365 87.308
2680.00 87.262 87.212 87.143 87.059 86.980 86.927
2704.00 86.898 86.884 86.880 86.876 86.855 86.808
2728.00 86.738 86.661 86.580 86.485 86.366 86.224
2752.00 86.085 85.973 85.889 85.815 85.735 85.651
2776.00 85.575 85.517 85.473 85.423 85.352 85.271
2800.00 85.206 85.170 85.140 85.079 84.968 84.816
2824.00 84.646 84.476 84.315 84.160 84.002 83.845
2848.00 83.716 83.638 83.604 83.578 83.527 83.448
2872.00 83.358 83.276 83.208 83.145 83.073 82.972
2896.00 82.833 82.673 82.538 82.477 82.492 82.533
2920.00 82.547 82.510 82.433 82.345 82.278 82.252
2944.00 82.254 82.237 82.150 81.967 81.705 81.397
2968.00 81.058 80.693 80.315 79.956 79.641 79.351
2992.00 78.991 78.425 77.614 76.759 76.235 76.279
3016.00 76.781 77.448 78.026 78.397 78.578 78.666
3040.00 78.707 78.651 78.445 78.135 77.836 77.614
3064.00 77.440 77.264 77.083 76.910 76.736 76.554
3088.00 76.388 76.292 76.322 76.504 76.791 77.075
3112.00 77.284 77.409 77.465 77.466 77.434 77.402
3136.00 77.373 77.321 77.232 77.113 76.973 76.819
3160.00 76.644 76.449 76.247 76.058 75.871 75.661
3184.00 75.421 75.164 74.906 74.659 74.427 74.203
3208.00 73.970 73.715 73.443 73.161 72.867 72.548
3232.00 72.206 71.847 71.478 71.101 70.722 70.359
3256.00 70.025 69.712 69.394 69.055 68.701 68.339
3280.00 67.962 67.557 67.113 66.632 66.126 65.599
3304.00 65.042 64.443 63.818 63.196 62.602 62.040
3328.00 61.510 61.015 60.529 59.981 59.327 58.569
3352.00 57.653 56.566 55.621 55.318 55.726 56.337
3376.00 56.661 56.673 56.572 56.432 56.241 56.019
3400.00 55.794 55.581 55.400 55.259 55.140 55.026
3424.00 54.922 54.828 54.738 54.635 54.521 54.434
3448.00 54.412 54.442 54.491 54.555 54.655 54.785
3472.00 54.946 55.160 55.439 55.778 56.182 56.666
3496.00 57.241 57.885 58.579 59.328 60.135 60.978
3520.00 61.826 62.687 63.579 64.499 65.418 66.306
3544.00 67.158 68.009 68.886 69.757 70.540 71.242
3568.00 72.004 72.891 73.791 74.561 75.210 75.867
3592.00 76.617 77.419 78.177 78.836 79.414 79.993
3616.00 80.629 81.265 81.805 82.316 82.977 83.723
3640.00 84.237 84.388 84.449 84.766 85.327 85.831
3664.00 85.991 85.771 85.542 85.717 86.113 86.285
3688.00 86.227 86.264 86.471 86.579 86.448 86.236
3712.00 86.137 86.172 86.213 86.131 85.907 85.662
3736.00 85.492 85.321 85.069 84.909 85.079 85.473
3760.00 85.760 85.825 85.818 85.856 85.889 85.870
3784.00 85.862 85.873 85.771 85.481 85.172 85.088
3808.00 85.170 85.127 84.880 84.691 84.743 84.810
3832.00 84.630 84.387 84.409 84.538 84.391 84.087
3856.00 84.067 84.287 84.338 84.205 84.203 84.328
3880.00 84.311 84.167 84.125 84.143 84.028 83.850
3904.00 83.854 84.040 84.167 84.145 84.102 84.117
3928.00 84.130 84.116 84.102 84.078 84.032 84.005
3952.00 84.013 84.008 83.972 83.936 83.913 83.890
3976.00 83.867 83.845 83.815 83.782 83.759 83.745
4000.00 83.727 