##TITLE= Pfeffer-Wyman Instruments
##JCAMP_DX= 4.24
##DATA TYPE= INFRARED SPECTRUM
##YUNITS= % Transmittance
##XUNITS= 1/CM
##FIRSTX= 400.00000
##LASTX= 4000.000
##XFACTOR= 1.00000000
##DELTAX= 4.0000000
##NPOINTS= 901
##XYDATA= (X++(Y..Y))
400.00 72.054 73.112 74.155 74.828 75.406 75.965
424.00 76.484 76.903 77.446 78.020 78.704 79.445
448.00 80.159 80.780 81.249 81.571 81.773 81.810
472.00 81.644 81.245 80.479 79.314 78.155 77.629
496.00 78.026 79.060 80.184 81.015 81.462 81.606
520.00 81.535 81.280 80.797 79.970 78.886 78.187
544.00 78.711 80.295 81.814 82.418 82.390 82.585
568.00 83.410 84.537 85.419 85.869 86.094 86.323
592.00 86.589 86.843 87.080 87.324 87.586 87.870
616.00 88.165 88.447 88.708 88.948 89.163 89.377
640.00 89.632 89.913 90.187 90.463 90.670 90.690
664.00 90.642 90.839 91.336 91.840 92.146 92.337
688.00 92.538 92.723 92.806 92.783 92.714 92.541
712.00 92.082 91.396 90.839 90.685 90.710 90.278
736.00 88.772 85.625 80.979 76.312 73.645 73.896
760.00 76.333 79.388 81.870 83.509 84.948 86.823
784.00 88.974 90.796 91.875 92.057 91.427 90.472
808.00 89.811 89.661 89.824 90.153 90.743 91.685
832.00 92.766 93.532 93.670 93.147 91.817 89.345
856.00 85.936 82.755 81.064 81.229 82.754 84.919
880.00 86.802 87.719 87.861 87.956 88.250 88.226
904.00 87.359 85.862 84.638 84.564 85.785 87.594
928.00 88.900 88.923 87.731 86.264 85.655 86.328
952.00 87.773 89.158 89.981 90.151 89.727 88.685
976.00 86.716 83.286 78.418 73.736 71.714 73.097
1000.00 75.716 76.659 74.886 71.300 67.282 63.782
1024.00 61.260 59.915 59.971 61.686 64.836 68.369
1048.00 70.988 72.221 72.728 73.508 74.955 76.683
1072.00 78.050 78.701 78.545 77.361 75.006 72.108
1096.00 70.109 69.728 69.934 69.501 68.641 68.293
1120.00 68.654 68.991 68.486 66.821 64.154 60.949
1144.00 57.762 54.990 52.824 51.342 50.494 50.015
1168.00 49.476 48.652 47.860 47.749 48.665 50.372
1192.00 52.399 54.442 56.314 57.821 58.828 59.346
1216.00 59.506 59.490 59.461 59.486 59.500 59.374
1240.00 59.054 58.635 58.289 58.116 58.099 58.189
1264.00 58.382 58.719 59.282 60.203 61.586 63.308
1288.00 64.896 65.755 65.628 64.792 63.665 62.404
1312.00 61.023 59.666 58.668 58.366 58.893 60.192
1336.00 62.139 64.531 67.005 69.159 70.655 70.946
1360.00 69.304 65.761 61.815 59.499 59.728 61.733
1384.00 63.934 65.212 65.554 65.744 66.379 67.333
1408.00 68.284 69.283 70.429 71.643 72.729 73.300
1432.00 72.949 71.626 69.845 68.389 67.792 67.876
1456.00 67.755 66.957 66.372 67.278 69.843 73.046
1480.00 76.352 80.074 83.927 87.014 88.995 90.220
1504.00 91.021 91.621 92.235 92.818 93.299 93.815
1528.00 94.384 94.787 94.960 95.120 95.464 95.799
1552.00 95.905 95.865 95.931 96.125 96.207 96.086
1576.00 95.883 95.712 95.595 95.535 95.504 95.435
1600.00 95.278 95.032 94.699 94.259 93.723 93.100
1624.00 92.373 91.484 90.463 89.506 88.766 88.166
1648.00 87.567 86.981 86.375 85.477 84.097 82.264
1672.00 80.106 77.660 74.881 71.851 68.792 65.881
1696.00 63.244 61.073 59.445 58.110 56.790 55.360
1720.00 53.901 52.495 50.805 48.280 45.544 45.294
1744.00 49.486 56.846 64.746 71.299 76.052 79.386
1768.00 81.773 83.501 84.703 85.447 85.870 86.238
1792.00 86.864 87.941 89.364 90.806 92.017 92.992
1816.00 93.806 94.464 94.971 95.426 95.906 96.356
1840.00 96.722 97.054 97.405 97.727 97.925 97.967
1864.00 97.893 97.788 97.712 97.656 97.597 97.557
1888.00 97.587 97.704 97.870 98.033 98.176 98.310
1912.00 98.444 98.575 98.703 98.831 98.944 99.011
1936.00 99.027 99.039 99.102 99.214 99.323 99.398
1960.00 99.459 99.526 99.589 99.637 99.672 99.695
1984.00 99.689 99.641 99.557 99.449 99.317 99.164
2008.00 99.004 98.873 98.805 98.808 98.837 98.832
2032.00 98.757 98.618 98.462 98.362 98.380 98.513
2056.00 98.687 98.818 98.863 98.830 98.754 98.690
2080.00 98.682 98.746 98.868 99.016 99.158 99.266
2104.00 99.337 99.385 99.438 99.511 99.606 99.705
2128.00 99.789 99.840 99.858 99.852 99.843 99.837
2152.00 99.829 99.813 99.790 99.755 99.703 99.629
2176.00 99.538 99.445 99.365 99.312 99.285 99.269
2200.00 99.246 99.207 99.157 99.096 99.021 98.926
2224.00 98.810 98.687 98.578 98.497 98.444 98.415
2248.00 98.416 98.456 98.533 98.623 98.701 98.761
2272.00 98.802 98.816 98.799 98.757 98.696 98.618
2296.00 98.528 98.449 98.408 98.378 98.364 98.375
2320.00 98.410 98.462 98.517 98.561 98.581 98.574
2344.00 98.553 98.564 98.649 98.799 98.963 99.094
2368.00 99.178 99.216 99.217 99.203 99.188 99.176
2392.00 99.191 99.199 99.214 99.238 99.261 99.273
2416.00 99.263 99.232 99.193 99.161 99.149 99.151
2440.00 99.152 99.131 99.073 98.969 98.832 98.697
2464.00 98.602 98.556 98.538 98.524 98.511 98.513
2488.00 98.530 98.543 98.548 98.552 98.564 98.578
2512.00 98.587 98.589 98.581 98.555 98.513 98.458
2536.00 98.398 98.335 98.269 98.202 98.131 98.052
2560.00 97.960 97.846 97.704 97.544 97.386 97.245
2584.00 97.121 97.007 96.894 96.777 96.651 96.512
2608.00 96.356 96.178 95.986 95.790 95.606 95.449
2632.00 95.322 95.229 95.172 95.155 95.177 95.223
2656.00 95.270 95.305 95.326 95.329 95.312 95.272
2680.00 95.216 95.155 95.100 95.055 95.015 94.970
2704.00 94.906 94.807 94.672 94.512 94.336 94.151
2728.00 93.974 93.832 93.726 93.632 93.529 93.414
2752.00 93.293 93.166 93.036 92.906 92.775 92.636
2776.00 92.489 92.345 92.203 92.049 91.862 91.623
2800.00 91.318 90.940 90.477 89.932 89.320 88.640
2824.00 87.842 86.825 85.419 83.260 79.869 74.992
2848.00 69.208 64.603 63.761 66.261 69.158 70.843
2872.00 71.567 72.048 72.373 71.996 70.514 68.110
2896.00 65.206 62.095 58.795 55.503 51.865 47.012
2920.00 40.839 35.746 37.949 43.508 48.512 53.070
2944.00 57.030 59.880 61.304 61.772 62.138 62.725
2968.00 63.079 62.705 61.800 61.143 61.425 62.758
2992.00 64.801 67.150 69.516 71.593 73.038 73.841
3016.00 74.643 76.296 78.988 81.987 84.520 86.327
3040.00 87.530 88.312 88.806 89.111 89.284 89.358
3064.00 89.356 89.277 89.105 88.812 88.344 87.659
3088.00 86.834 86.054 85.462 85.092 84.971 85.137
3112.00 85.518 85.914 86.160 86.224 86.151 85.983
3136.00 85.758 85.496 85.200 84.868 84.515 84.152
3160.00 83.771 83.366 82.940 82.500 82.052 81.598
3184.00 81.143 80.685 80.216 79.733 79.245 78.763
3208.00 78.289 77.811 77.324 76.832 76.349 75.877
3232.00 75.406 74.935 74.471 74.014 73.562 73.116
3256.00 72.687 72.273 71.861 71.443 71.027 70.625
3280.00 70.238 69.856 69.469 69.079 68.695 68.324
3304.00 67.969 67.627 67.295 66.967 66.646 66.342
3328.00 66.056 65.780 65.505 65.239 64.988 64.751
3352.00 64.515 64.270 64.025 63.802 63.611 63.439
3376.00 63.268 63.103 62.946 62.789 62.630 62.484
3400.00 62.365 62.276 62.207 62.146 62.087 62.039
3424.00 62.008 61.992 61.988 61.997 62.011 62.039
3448.00 62.103 62.207 62.336 62.480 62.663 62.901
3472.00 63.185 63.497 63.836 64.216 64.650 65.134
3496.00 65.663 66.247 66.920 67.710 68.602 69.548
3520.00 70.530 71.574 72.704 73.893 75.086 76.254
3544.00 77.414 78.604 79.835 81.051 82.178 83.228
3568.00 84.310 85.439 86.482 87.344 88.052 88.699
3592.00 89.344 89.968 90.535 91.033 91.480 91.922
3616.00 92.393 92.850 93.213 93.509 93.846 94.202
3640.00 94.432 94.482 94.513 94.748 95.140 95.478
3664.00 95.636 95.594 95.539 95.724 96.019 96.162
3688.00 96.174 96.263 96.464 96.597 96.580 96.510
3712.00 96.502 96.535 96.538 96.483 96.373 96.246
3736.00 96.181 96.172 96.127 96.067 96.129 96.282
3760.00 96.378 96.381 96.380 96.413 96.423 96.386
3784.00 96.369 96.382 96.336 96.183 96.040 96.090
3808.00 96.224 96.256 96.137 96.035 96.059 96.065
3832.00 95.936 95.769 95.749 95.826 95.797 95.682
3856.00 95.666 95.726 95.701 95.624 95.643 95.719
3880.00 95.712 95.657 95.677 95.711 95.636 95.508
3904.00 95.505 95.616 95.665 95.606 95.533 95.518
3928.00 95.534 95.558 95.586 95.587 95.544 95.502
3952.00 95.495 95.496 95.489 95.489 95.499 95.502
3976.00 95.492 95.481 95.463 95.423 95.359 95.272
4000.00 95.171 