##TITLE= Pfeffer-Wyman Instruments
##JCAMP_DX= 4.24
##DATA TYPE= INFRARED SPECTRUM
##YUNITS= % Transmittance
##XUNITS= 1/CM
##FIRSTX= 400.00000
##LASTX= 4000.000
##XFACTOR= 1.00000000
##DELTAX= 4.0000000
##NPOINTS= 901
##XYDATA= (X++(Y..Y))
400.00 88.032 88.860 89.379 88.863 87.736 87.117
424.00 87.543 88.437 89.357 89.711 89.705 89.646
448.00 89.520 89.247 89.071 89.232 89.456 89.412
472.00 89.299 89.435 89.659 89.699 89.653 89.637
496.00 89.501 89.198 88.973 88.989 89.122 89.206
520.00 89.251 89.333 89.456 89.592 89.664 89.533
544.00 89.149 88.638 87.938 87.020 85.970 84.980
568.00 84.004 82.819 81.131 78.568 75.323 72.769
592.00 72.311 73.755 76.048 78.819 82.056 85.277
616.00 87.813 89.449 90.375 90.961 91.381 91.544
640.00 91.309 90.756 90.319 90.395 90.786 90.784
664.00 90.092 89.162 88.487 88.140 88.423 89.750
688.00 91.757 93.496 94.434 94.631 94.352 93.864
712.00 93.340 92.866 92.450 92.070 91.721 91.749
736.00 92.791 94.532 95.912 96.477 96.620 96.709
760.00 96.711 96.621 96.460 96.083 95.515 95.217
784.00 95.606 96.498 97.346 97.822 97.970 97.921
808.00 97.660 97.088 96.259 95.519 95.314 95.768
832.00 96.530 97.137 97.422 97.533 97.613 97.633
856.00 97.539 97.401 97.329 97.342 97.411 97.530
880.00 97.630 97.588 97.368 97.068 96.758 96.421
904.00 96.101 95.942 96.007 96.172 96.264 96.231
928.00 96.118 95.959 95.760 95.542 95.338 95.142
952.00 94.916 94.647 94.348 94.004 93.590 93.133
976.00 92.678 92.199 91.638 90.979 90.237 89.408
1000.00 88.425 87.189 85.621 83.588 80.709 76.428
1024.00 70.622 64.426 60.384 60.625 64.689 70.321
1048.00 75.521 79.176 80.864 80.840 80.045 79.417
1072.00 78.801 77.302 74.537 70.871 66.751 62.398
1096.00 58.521 56.800 58.709 63.541 69.130 73.747
1120.00 76.685 78.043 78.348 78.060 77.128 75.183
1144.00 72.153 68.563 65.311 63.124 62.048 61.427
1168.00 60.459 58.856 56.974 55.346 54.212 53.556
1192.00 53.335 53.534 54.177 55.291 56.796 58.444
1216.00 59.968 61.231 62.371 63.757 65.648 67.891
1240.00 70.120 72.187 74.183 76.116 77.822 79.251
1264.00 80.633 82.202 83.881 85.403 86.607 87.523
1288.00 88.149 88.415 88.339 88.101 87.797 87.236
1312.00 86.302 85.545 85.948 87.598 89.464 90.508
1336.00 90.688 90.626 90.728 90.967 91.183 91.107
1360.00 90.412 89.037 87.423 86.413 86.578 87.495
1384.00 88.073 87.572 85.919 83.933 82.750 83.277
1408.00 85.063 86.689 87.383 87.725 88.275 88.453
1432.00 87.781 86.598 85.338 83.794 81.615 78.477
1456.00 74.566 71.352 69.948 70.243 72.516 76.856
1480.00 81.643 85.283 87.646 89.462 90.795 90.924
1504.00 89.796 88.844 88.994 88.847 87.996 88.031
1528.00 89.188 89.445 87.957 86.403 87.123 88.560
1552.00 88.275 86.610 85.769 86.294 86.338 85.410
1576.00 84.678 84.614 84.336 83.183 81.108 77.890
1600.00 72.802 65.327 56.232 49.133 50.414 57.319
1624.00 63.172 65.520 64.554 62.589 62.002 62.059
1648.00 62.040 65.767 73.863 79.886 82.864 84.437
1672.00 85.798 86.775 86.984 87.216 88.019 88.359
1696.00 87.442 86.762 87.840 89.044 88.858 87.903
1720.00 87.453 86.536 83.502 78.003 72.219 70.079
1744.00 73.267 79.343 85.305 89.614 92.111 93.293
1768.00 93.740 94.120 94.921 95.883 96.425 96.413
1792.00 96.253 96.420 96.939 97.460 97.782 98.056
1816.00 98.334 98.305 97.854 97.569 97.923 98.328
1840.00 98.217 97.983 98.224 98.763 99.049 98.862
1864.00 98.397 98.117 98.326 98.762 98.954 98.784
1888.00 98.522 98.459 98.601 98.738 98.733 98.622
1912.00 98.479 98.318 98.220 98.345 98.636 98.791
1936.00 98.647 98.389 98.314 98.458 98.617 98.644
1960.00 98.546 98.432 98.393 98.442 98.517 98.511
1984.00 98.371 98.183 98.099 98.150 98.226 98.225
2008.00 98.144 98.022 97.908 97.848 97.846 97.845
2032.00 97.801 97.727 97.660 97.623 97.612 97.603
2056.00 97.557 97.472 97.396 97.370 97.381 97.396
2080.00 97.402 97.403 97.412 97.432 97.459 97.482
2104.00 97.493 97.495 97.492 97.491 97.494 97.500
2128.00 97.499 97.487 97.467 97.450 97.438 97.429
2152.00 97.422 97.418 97.409 97.394 97.381 97.376
2176.00 97.370 97.358 97.339 97.319 97.305 97.291
2200.00 97.272 97.247 97.225 97.209 97.185 97.150
2224.00 97.122 97.110 97.099 97.079 97.059 97.049
2248.00 97.043 97.030 97.004 96.969 96.933 96.903
2272.00 96.890 96.884 96.874 96.856 96.829 96.794
2296.00 96.752 96.721 96.721 96.721 96.721 96.721
2320.00 96.722 96.723 96.724 96.725 96.726 96.726
2344.00 96.726 96.726 96.728 96.731 96.734 96.736
2368.00 96.737 96.738 96.738 96.738 96.738 96.742
2392.00 96.769 96.781 96.786 96.791 96.794 96.795
2416.00 96.795 96.795 96.798 96.804 96.813 96.823
2440.00 96.833 96.839 96.842 96.841 96.834 96.823
2464.00 96.809 96.792 96.769 96.747 96.722 96.717
2488.00 96.718 96.711 96.699 96.699 96.716 96.727
2512.00 96.720 96.708 96.705 96.699 96.678 96.645
2536.00 96.615 96.595 96.581 96.567 96.545 96.509
2560.00 96.459 96.405 96.350 96.295 96.246 96.205
2584.00 96.162 96.109 96.047 95.985 95.926 95.868
2608.00 95.824 95.811 95.815 95.807 95.785 95.771
2632.00 95.775 95.782 95.768 95.730 95.680 95.629
2656.00 95.577 95.519 95.453 95.382 95.320 95.272
2680.00 95.245 95.238 95.246 95.260 95.269 95.265
2704.00 95.238 95.197 95.156 95.114 95.059 94.983
2728.00 94.899 94.826 94.777 94.750 94.729 94.683
2752.00 94.610 94.538 94.484 94.433 94.362 94.270
2776.00 94.170 94.061 93.924 93.749 93.553 93.341
2800.00 93.096 92.810 92.472 92.067 91.586 91.012
2824.00 90.300 89.366 88.052 85.990 82.691 77.907
2848.00 72.225 67.751 67.135 70.061 73.681 76.361
2872.00 78.074 79.170 79.640 79.219 77.873 75.919
2896.00 73.682 71.280 68.466 65.140 60.795 54.787
2920.00 47.549 41.962 44.967 52.077 58.539 64.061
2944.00 68.337 71.162 72.783 73.985 75.527 77.544
2968.00 79.563 81.107 82.116 82.895 83.790 84.887
2992.00 86.057 87.161 88.144 88.961 89.580 90.011
3016.00 90.322 90.553 90.695 90.768 90.825 90.888
3040.00 90.928 90.927 90.908 90.882 90.831 90.756
3064.00 90.694 90.655 90.602 90.523 90.463 90.448
3088.00 90.423 90.343 90.246 90.188 90.160 90.120
3112.00 90.058 89.993 89.930 89.865 89.786 89.694
3136.00 89.595 89.501 89.405 89.295 89.182 89.062
3160.00 88.923 88.746 88.544 88.353 88.170 87.958
3184.00 87.714 87.473 87.239 86.977 86.681 86.391
3208.00 86.132 85.880 85.601 85.302 85.020 84.760
3232.00 84.475 84.143 83.821 83.557 83.315 83.058
3256.00 82.815 82.611 82.402 82.137 81.848 81.605
3280.00 81.406 81.184 80.900 80.588 80.283 79.944
3304.00 79.503 78.981 78.462 77.963 77.418 76.780
3328.00 76.062 75.286 74.472 73.631 72.714 71.649
3352.00 70.419 69.037 67.536 66.063 64.778 63.602
3376.00 62.259 60.622 58.776 56.796 54.707 52.607
3400.00 50.705 49.149 47.694 45.646 42.725 40.058
3424.00 38.902 38.518 38.092 37.962 38.581 40.887
3448.00 44.745 48.367 50.735 52.218 53.601 55.213
3472.00 56.813 58.115 59.220 60.446 61.863 63.179
3496.00 64.132 64.837 65.721 67.060 68.577 69.716
3520.00 70.327 70.909 72.007 73.457 74.641 75.254
3544.00 75.602 76.377 77.746 78.913 79.177 79.034
3568.00 79.958 81.905 83.459 84.037 84.120 84.491
3592.00 85.375 86.425 87.351 88.000 88.272 88.439
3616.00 88.987 89.863 90.513 90.962 91.902 93.125
3640.00 93.600 92.918 92.115 92.710 94.237 95.316
3664.00 95.305 94.164 92.913 93.217 94.315 94.647
3688.00 94.272 94.289 94.922 95.208 94.725 94.045
3712.00 93.824 93.930 93.879 93.462 92.669 91.751
3736.00 91.240 91.170 90.959 90.665 91.152 92.292
3760.00 93.131 93.398 93.567 93.867 93.969 93.818
3784.00 93.848 94.032 93.748 92.673 91.516 91.418
3808.00 92.025 92.040 91.135 90.363 90.600 90.973
3832.00 90.426 89.517 89.551 90.163 90.053 89.343
3856.00 89.241 89.615 89.488 89.056 89.240 89.744
3880.00 89.741 89.438 89.606 89.885 89.513 88.838
3904.00 89.012 89.922 90.376 90.068 89.582 89.385
3928.00 89.395 89.499 89.635 89.589 89.357 89.273
3952.00 89.448 89.622 89.646 89.593 89.502 89.388
3976.00 89.337 89.357 89.315 89.163 89.013 88.957
4000.00 88.924 